# stacked metamaterial geometry 
# f [Hz], L [0.001 m]
# Unitcell size lx, ly, lz = 10, 10, 99.931 at center position x = 0 y = 0 z = 0
# Definition of material properties: 
#name =copper,type =const,Kappa =56000000,
#name =FR4,Epsilon =4.4,Kappa =0.048957,type =const,
#name =copperSquares,type =const,Kappa =56000000,
#name =air,type =const,Epsilon =1,
## layer number 1:
# rect patch made of copper. lx, ly, lz = 10, 10, 0.5 at center position x = 0 y = 0 z = -0.25
# background material (if any) is air
# layer number 2:
# rect patch made of FR4. lx, ly, lz = 10, 10, 4 at center position x = 0 y = 0 z = -2.5
# background material (if any) is air
# Re/Im parts of the scattering parameters S11 (refl.) and S21 (transm.) and the real and imaginary part of the impedance as a function of frequency 
# first column is frequency, second and third columns are Re/Im of S11 and S21, respectively.
1000000000.000000, 0.998045, -0.101056, -0.000000, -0.000000, -232.573111, -7453.109962 
1010005265.929437, 0.993877, -0.133500, -0.000000, -0.000000, -118.399067, -5632.028824 
1020010531.858873, 0.988650, -0.165753, -0.000000, -0.000000, -66.912557, -4524.456295 
1030015797.788310, 0.982376, -0.197780, -0.000000, -0.000000, -39.942315, -3779.577758 
1040021063.717746, 0.975068, -0.229547, -0.000000, -0.000000, -24.379491, -3244.110578 
1050026329.647183, 0.966739, -0.261021, -0.000000, -0.000000, -14.780586, -2840.460464 
1060031595.576619, 0.957402, -0.292172, -0.000000, -0.000000, -8.572122, -2525.145862 
1070036861.506056, 0.947073, -0.322968, -0.000000, -0.000000, -4.416648, -2271.910721 
1080042127.435492, 0.935767, -0.353379, -0.000000, -0.000000, -1.566936, -2063.964164 
1090047393.364929, 0.923500, -0.383377, -0.000000, -0.000000, 0.419041, -1890.068340 
1100052659.294365, 0.910289, -0.412932, -0.000000, -0.000000, 1.815172, -1742.418317 
1110057925.223802, 0.896152, -0.442018, -0.000000, -0.000000, 2.797798, -1615.424331 
1120063191.153239, 0.881107, -0.470608, -0.000000, -0.000000, 3.484180, -1504.978022 
1130068457.082675, 0.865171, -0.498677, -0.000000, -0.000000, 3.954475, -1407.992206 
1140073723.012112, 0.848364, -0.526198, -0.000000, -0.000000, 4.264796, -1322.102169 
1150078988.941548, 0.830704, -0.553148, -0.000000, -0.000000, 4.455250, -1245.466019 
1160084254.870985, 0.812213, -0.579503, -0.000000, -0.000000, 4.555037, -1176.627768 
1170089520.800421, 0.792908, -0.605240, -0.000000, -0.000000, 4.585760, -1114.421304 
1180094786.729858, 0.772811, -0.630337, -0.000000, -0.000000, 4.563643, -1057.901672 
1190100052.659294, 0.751943, -0.654771, -0.000000, -0.000000, 4.501023, -1006.295024 
1200105318.588731, 0.730323, -0.678521, -0.000000, 0.000000, 4.407399, -958.961568 
1210110584.518167, 0.707974, -0.701567, -0.000000, 0.000000, 4.290162, -915.367748 
1220115850.447604, 0.684917, -0.723888, -0.000000, 0.000000, 4.155115, -875.065073 
1230121116.377041, 0.661174, -0.745465, -0.000000, 0.000000, 4.006860, -837.673816 
1240126382.306477, 0.636767, -0.766277, -0.000000, 0.000000, 3.849071, -802.870323 
1250131648.235914, 0.611719, -0.786306, -0.000000, 0.000000, 3.684704, -770.377031 
1260136914.165350, 0.586054, -0.805534, -0.000000, 0.000000, 3.516151, -739.954548 
1270142180.094787, 0.559794, -0.823942, -0.000000, 0.000000, 3.345359, -711.395306 
1280147446.024223, 0.532965, -0.841513, -0.000000, 0.000000, 3.173920, -684.518447 
1290152711.953660, 0.505589, -0.858230, -0.000000, 0.000000, 3.003137, -659.165654 
1300157977.883096, 0.477693, -0.874076, -0.000000, 0.000000, 2.834084, -635.197752 
1310163243.812533, 0.449303, -0.889035, -0.000000, 0.000000, 2.667645, -612.491893 
1320168509.741970, 0.420443, -0.903091, -0.000000, 0.000000, 2.504544, -590.939228 
1330173775.671406, 0.391140, -0.916229, -0.000000, 0.000000, 2.345379, -570.442973 
1340179041.600842, 0.361423, -0.928434, -0.000000, 0.000000, 2.190637, -550.916771 
1350184307.530279, 0.331318, -0.939693, -0.000000, 0.000000, 2.040715, -532.283331 
1360189573.459716, 0.300855, -0.949992, -0.000000, 0.000000, 1.895931, -514.473261 
1370194839.389152, 0.270061, -0.959318, -0.000000, 0.000000, 1.756537, -497.424081 
1380200105.318589, 0.238968, -0.967660, -0.000000, 0.000000, 1.622727, -481.079384 
1390205371.248025, 0.207604, -0.975007, -0.000000, 0.000000, 1.494646, -465.388108 
1400210637.177462, 0.176002, -0.981347, -0.000000, 0.000000, 1.372397, -450.303915 
1410215903.106898, 0.144192, -0.986672, -0.000000, 0.000000, 1.256043, -435.784657 
1420221169.036335, 0.112206, -0.990973, -0.000000, 0.000000, 1.145615, -421.791903 
1430226434.965771, 0.080077, -0.994242, -0.000000, 0.000000, 1.041116, -408.290538 
1440231700.895208, 0.047838, -0.996473, -0.000000, 0.000000, 0.942520, -395.248406 
1450236966.824645, 0.015522, -0.997661, -0.000000, 0.000000, 0.849780, -382.636001 
1460242232.754081, -0.016836, -0.997801, -0.000000, 0.000000, 0.762827, -370.426198 
1470247498.683518, -0.049203, -0.996890, -0.000000, 0.000000, 0.681574, -358.594005 
1480252764.612954, -0.081543, -0.994926, -0.000000, 0.000000, 0.605918, -347.116361 
1490258030.542391, -0.113822, -0.991908, -0.000000, 0.000000, 0.535741, -335.971942 
1500263296.471827, -0.146004, -0.987837, -0.000000, 0.000000, 0.470912, -325.140998 
1510268562.401264, -0.178055, -0.982714, -0.000000, 0.000000, 0.411288, -314.605203 
1520273828.330700, -0.209938, -0.976543, -0.000000, 0.000000, 0.356715, -304.347525 
1530279094.260137, -0.241618, -0.969329, 0.000000, 0.000000, 0.307032, -294.352109 
1540284360.189574, -0.273060, -0.961077, 0.000000, 0.000000, 0.262068, -284.604169 
1550289626.119010, -0.304229, -0.951794, 0.000000, 0.000000, 0.221647, -275.089894 
1560294892.048447, -0.335089, -0.941489, 0.000000, 0.000000, 0.185585, -265.796366 
1570300157.977883, -0.365605, -0.930172, 0.000000, 0.000000, 0.153694, -256.711480 
1580305423.907320, -0.395743, -0.917854, 0.000000, 0.000000, 0.125784, -247.823877 
1590310689.836756, -0.425469, -0.904548, 0.000000, 0.000000, 0.101659, -239.122879 
1600315955.766193, -0.454749, -0.890268, 0.000000, 0.000000, 0.081122, -230.598438 
1610321221.695629, -0.483550, -0.875029, 0.000000, 0.000000, 0.063975, -222.241078 
1620326487.625066, -0.511839, -0.858848, 0.000000, 0.000000, 0.050018, -214.041853 
1630331753.554502, -0.539584, -0.841742, 0.000000, 0.000000, 0.039052, -205.992302 
1640337019.483939, -0.566754, -0.823731, 0.000000, 0.000000, 0.030879, -198.084413 
1650342285.413375, -0.593319, -0.804834, 0.000000, 0.000000, 0.025300, -190.310585 
1660347551.342812, -0.619250, -0.785073, 0.000000, 0.000000, 0.022121, -182.663598 
1670352817.272249, -0.644516, -0.764470, 0.000000, 0.000000, 0.021148, -175.136583 
1680358083.201685, -0.669091, -0.743048, 0.000000, 0.000000, 0.022190, -167.722993 
1690363349.131122, -0.692948, -0.720831, 0.000000, 0.000000, 0.025062, -160.416580 
1700368615.060558, -0.716060, -0.697845, 0.000000, 0.000000, 0.029580, -153.211372 
1710373880.989995, -0.738403, -0.674116, 0.000000, 0.000000, 0.035566, -146.101653 
1720379146.919431, -0.759954, -0.649669, 0.000000, 0.000000, 0.042848, -139.081939 
1730384412.848868, -0.780688, -0.624533, 0.000000, 0.000000, 0.051256, -132.146964 
1740389678.778304, -0.800584, -0.598736, 0.000000, 0.000000, 0.060629, -125.291665 
1750394944.707741, -0.819623, -0.572307, 0.000000, 0.000000, 0.070810, -118.511160 
1760400210.637177, -0.837783, -0.545274, 0.000000, 0.000000, 0.081649, -111.800740 
1770405476.566614, -0.855047, -0.517667, 0.000000, 0.000000, 0.093003, -105.155851 
1780410742.496051, -0.871396, -0.489518, -0.000000, 0.000000, 0.104735, -98.572086 
1790416008.425487, -0.886816, -0.460857, -0.000000, 0.000000, 0.116715, -92.045167 
1800421274.354924, -0.901290, -0.431714, -0.000000, 0.000000, 0.128823, -85.570941 
1810426540.284360, -0.914804, -0.402121, -0.000000, 0.000000, 0.140942, -79.145364 
1820431806.213797, -0.927345, -0.372111, -0.000000, 0.000000, 0.152966, -72.764494 
1830437072.143233, -0.938901, -0.341715, -0.000000, 0.000000, 0.164796, -66.424481 
1840442338.072670, -0.949461, -0.310965, -0.000000, 0.000000, 0.176340, -60.121558 
1850447604.002106, -0.959015, -0.279894, -0.000000, 0.000000, 0.187516, -53.852034 
1860452869.931543, -0.967554, -0.248535, -0.000000, 0.000000, 0.198247, -47.612283 
1870458135.860980, -0.975070, -0.216920, -0.000000, 0.000000, 0.208467, -41.398739 
1880463401.790416, -0.981556, -0.185082, -0.000000, 0.000000, 0.218117, -35.207888 
1890468667.719852, -0.987005, -0.153055, -0.000000, 0.000000, 0.227145, -29.036260 
1900473933.649289, -0.991414, -0.120872, -0.000000, 0.000000, 0.235509, -22.880423 
1910479199.578726, -0.994778, -0.088565, -0.000000, 0.000000, 0.243174, -16.736975 
1920484465.508162, -0.997093, -0.056168, -0.000000, 0.000000, 0.250112, -10.602538 
1930489731.437599, -0.998359, -0.023715, -0.000000, 0.000000, 0.256304, -4.473752 
1940494997.367035, -0.998573, 0.008762, -0.000000, 0.000000, 0.261739, 1.652733 
1950500263.296472, -0.997736, 0.041228, -0.000000, 0.000000, 0.266414, 7.780261 
1960505529.225908, -0.995848, 0.073651, -0.000000, 0.000000, 0.270332, 13.912180 
1970510795.155345, -0.992911, 0.105998, -0.000000, 0.000000, 0.273503, 20.051844 
1980516061.084782, -0.988929, 0.138234, -0.000000, 0.000000, 0.275947, 26.202626 
1990521327.014218, -0.983903, 0.170328, -0.000000, 0.000000, 0.277689, 32.367917 
2000526592.943655, -0.977841, 0.202245, -0.000000, 0.000000, 0.278760, 38.551138 
2010531858.873091, -0.970746, 0.233952, -0.000000, 0.000000, 0.279200, 44.755747 
2020537124.802528, -0.962626, 0.265418, -0.000000, 0.000000, 0.279053, 50.985241 
2030542390.731964, -0.953488, 0.296608, -0.000000, 0.000000, 0.278371, 57.243172 
2040547656.661401, -0.943341, 0.327491, -0.000000, 0.000000, 0.277211, 63.533145 
2050552922.590837, -0.932194, 0.358034, -0.000000, 0.000000, 0.275637, 69.858834 
2060558188.520274, -0.920059, 0.388205, -0.000000, 0.000000, 0.273716, 76.223984 
2070563454.449710, -0.906947, 0.417971, -0.000000, 0.000000, 0.271523, 82.632425 
2080568720.379147, -0.892871, 0.447301, 0.000000, 0.000000, 0.269137, 89.088077 
2090573986.308583, -0.877844, 0.476165, 0.000000, 0.000000, 0.266640, 95.594962 
2100579252.238020, -0.861882, 0.504530, 0.000000, 0.000000, 0.264122, 102.157213 
2110584518.167457, -0.845000, 0.532366, 0.000000, 0.000000, 0.261674, 108.779087 
2120589784.096893, -0.827216, 0.559643, 0.000000, 0.000000, 0.259393, 115.464971 
2130595050.026330, -0.808546, 0.586331, 0.000000, 0.000000, 0.257379, 122.219401 
2140600315.955766, -0.789010, 0.612401, 0.000000, 0.000000, 0.255736, 129.047071 
2150605581.885203, -0.768629, 0.637825, 0.000000, 0.000000, 0.254572, 135.952846 
2160610847.814639, -0.747423, 0.662574, 0.000000, 0.000000, 0.253995, 142.941781 
2170616113.744076, -0.725414, 0.686621, 0.000000, 0.000000, 0.254120, 150.019131 
2180621379.673512, -0.702626, 0.709939, 0.000000, 0.000000, 0.255062, 157.190377 
2190626645.602949, -0.679081, 0.732502, 0.000000, 0.000000, 0.256940, 164.461233 
2200631911.532386, -0.654806, 0.754286, 0.000000, 0.000000, 0.259874, 171.837677 
2210637177.461822, -0.629827, 0.775265, 0.000000, 0.000000, 0.263989, 179.325966 
2220642443.391258, -0.604169, 0.795416, 0.000000, 0.000000, 0.269408, 186.932662 
2230647709.320695, -0.577860, 0.814718, 0.000000, 0.000000, 0.276260, 194.664655 
2240652975.250132, -0.550930, 0.833147, 0.000000, 0.000000, 0.284675, 202.529195 
2250658241.179568, -0.523407, 0.850684, 0.000000, 0.000000, 0.294783, 210.533917 
2260663507.109005, -0.495321, 0.867308, 0.000000, 0.000000, 0.306718, 218.686878 
2270668773.038442, -0.466703, 0.883003, 0.000000, 0.000000, 0.320617, 226.996591 
2280674038.967878, -0.437585, 0.897749, 0.000000, 0.000000, 0.336618, 235.472065 
2290679304.897314, -0.407998, 0.911531, 0.000000, 0.000000, 0.354860, 244.122846 
2300684570.826751, -0.377974, 0.924333, 0.000000, 0.000000, 0.375488, 252.959068 
2310689836.756187, -0.347547, 0.936142, 0.000000, 0.000000, 0.398647, 261.991501 
2320695102.685624, -0.316751, 0.946945, 0.000000, 0.000000, 0.424488, 271.231610 
2330700368.615061, -0.285619, 0.956730, 0.000000, 0.000000, 0.453164, 280.691620 
2340705634.544497, -0.254185, 0.965487, 0.000000, 0.000000, 0.484834, 290.384584 
2350710900.473934, -0.222485, 0.973207, 0.000000, 0.000000, 0.519660, 300.324458 
2360716166.403370, -0.190552, 0.979882, 0.000000, 0.000000, 0.557812, 310.526193 
2370721432.332807, -0.158422, 0.985506, 0.000000, 0.000000, 0.599467, 321.005825 
2380726698.262243, -0.126131, 0.990072, 0.000000, 0.000000, 0.644808, 331.780585 
2390731964.191680, -0.093712, 0.993577, 0.000000, 0.000000, 0.694030, 342.869016 
2400737230.121117, -0.061202, 0.996018, 0.000000, 0.000000, 0.747337, 354.291107 
2410742496.050553, -0.028635, 0.997393, 0.000000, 0.000000, 0.804946, 366.068443 
2420747761.979990, 0.003952, 0.997702, 0.000000, 0.000000, 0.867091, 378.224372 
2430753027.909426, 0.036526, 0.996945, 0.000000, 0.000000, 0.934020, 390.784195 
2440758293.838862, 0.069051, 0.995125, 0.000000, 0.000000, 1.006003, 403.775381 
2450763559.768299, 0.101491, 0.992243, 0.000000, 0.000000, 1.083332, 417.227807 
2460768825.697736, 0.133814, 0.988305, 0.000000, 0.000000, 1.166327, 431.174036 
2470774091.627172, 0.165984, 0.983316, 0.000000, -0.000000, 1.255340, 445.649630 
2480779357.556609, 0.197968, 0.977281, 0.000000, -0.000000, 1.350757, 460.693508 
2490784623.486045, 0.229731, 0.970209, 0.000000, -0.000000, 1.453009, 476.348358 
2500789889.415482, 0.261241, 0.962107, 0.000000, -0.000000, 1.562576, 492.661111 
2510795155.344918, 0.292464, 0.952986, 0.000000, -0.000000, 1.679997, 509.683484 
2520800421.274355, 0.323368, 0.942856, 0.000000, -0.000000, 1.805876, 527.472611 
2530805687.203792, 0.353921, 0.931728, 0.000000, -0.000000, 1.940900, 546.091783 
2540810953.133228, 0.384092, 0.919614, 0.000000, -0.000000, 2.085849, 565.611296 
2550816219.062665, 0.413849, 0.906529, 0.000000, -0.000000, 2.241613, 586.109460 
2560821484.992101, 0.443161, 0.892486, 0.000000, -0.000000, 2.409216, 607.673777 
2570826750.921537, 0.471998, 0.877501, 0.000000, -0.000000, 2.589834, 630.402337 
2580832016.850974, 0.500332, 0.861589, 0.000000, -0.000000, 2.784832, 654.405474 
2590837282.780411, 0.528131, 0.844767, 0.000000, -0.000000, 2.995797, 679.807743 
2600842548.709847, 0.555369, 0.827054, 0.000000, -0.000000, 3.224585, 706.750296 
2610847814.639284, 0.582017, 0.808467, 0.000000, -0.000000, 3.473377, 735.393742 
2620853080.568720, 0.608048, 0.789026, 0.000000, -0.000000, 3.744751, 765.921634 
2630858346.498157, 0.633435, 0.768751, 0.000000, -0.000000, 4.041768, 798.544714 
2640863612.427593, 0.658151, 0.747663, 0.000000, -0.000000, 4.368091, 833.506156 
2650868878.357030, 0.682172, 0.725784, 0.000000, 0.000000, 4.728125, 871.088057 
2660874144.286467, 0.705472, 0.703136, 0.000000, 0.000000, 5.127209, 911.619556 
2670879410.215903, 0.728027, 0.679742, 0.000000, 0.000000, 5.571861, 955.487079 
2680884676.145340, 0.749814, 0.655625, 0.000000, 0.000000, 6.070105, 1003.147371 
2690889942.074776, 0.770809, 0.630811, 0.000000, 0.000000, 6.631907, 1055.144271 
2700895208.004213, 0.790991, 0.605325, 0.000000, 0.000000, 7.269763, 1112.130510 
2710900473.933649, 0.810339, 0.579193, 0.000000, 0.000000, 7.999519, 1174.896424 
2720905739.863086, 0.828830, 0.552441, 0.000000, 0.000000, 8.841500, 1244.408234 
2730911005.792522, 0.846446, 0.525096, 0.000000, 0.000000, 9.822129, 1321.859874 
2740916271.721959, 0.863167, 0.497187, 0.000000, 0.000000, 10.976260, 1408.744286 
2750921537.651396, 0.878975, 0.468742, 0.000000, 0.000000, 12.350636, 1506.953292 
2760926803.580832, 0.893853, 0.439790, 0.000000, 0.000000, 14.009124, 1618.920356 
2770932069.510269, 0.907784, 0.410361, 0.000000, 0.000000, 16.040859, 1747.829390 
2780937335.439705, 0.920752, 0.380485, 0.000000, 0.000000, 18.573313, 1897.928210 
2790942601.369142, 0.932742, 0.350193, 0.000000, 0.000000, 21.794003, 2075.013431 
2800947867.298578, 0.943741, 0.319518, 0.000000, 0.000000, 25.988079, 2287.207112 
2810953133.228015, 0.953736, 0.288490, 0.000000, 0.000000, 31.606601, 2546.252792 
2820958399.157452, 0.962714, 0.257142, 0.000000, 0.000000, 39.397973, 2869.786899 
2830963665.086888, 0.970664, 0.225508, 0.000000, 0.000000, 50.679424, 3285.564564 
2840968931.016325, 0.977578, 0.193621, 0.000000, 0.000000, 67.949611, 3839.929618 
2850974196.945761, 0.983446, 0.161514, 0.000000, 0.000000, 96.438235, 4616.499419 
2860979462.875197, 0.988260, 0.129221, 0.000000, 0.000000, 148.680262, 5783.041789 
2870984728.804634, 0.992014, 0.096778, 0.000000, 0.000000, 261.389708, 7732.772852 
2880989994.734071, 0.994702, 0.064219, 0.000000, 0.000000, 584.641155, 11653.285000 
2890995260.663507, 0.996320, 0.031580, 0.000000, 0.000000, 2365.956809, 23539.301386 
2901000526.592944, 0.996866, -0.001105, 0.000000, 0.000000, 213452.729063, -75387.223802 
2911005792.522380, 0.996336, -0.033800, 0.000000, 0.000000, 2011.434540, -22033.162352 
2921011058.451817, 0.994732, -0.066468, 0.000000, 0.000000, 516.160089, -11264.865651 
2931016324.381253, 0.992052, -0.099075, 0.000000, 0.000000, 229.484327, -7556.291428 
2941021590.310690, 0.988298, -0.131585, 0.000000, 0.000000, 128.482149, -5681.114333 
2951026856.240127, 0.983475, -0.163961, 0.000000, 0.000000, 81.759829, -4549.151675 
2961032122.169563, 0.977586, -0.196168, 0.000000, -0.000000, 56.473230, -3791.390421 
2971037388.099000, 0.970636, -0.228171, 0.000000, -0.000000, 41.308758, -3248.379704 
2981042654.028436, 0.962633, -0.259933, 0.000000, -0.000000, 31.531032, -2839.981482 
2991047919.957872, 0.953585, -0.291420, 0.000000, -0.000000, 24.877192, -2521.515563 
3001053185.887309, 0.943500, -0.322596, 0.000000, -0.000000, 20.156329, -2266.103520 
3011058451.816746, 0.932390, -0.353427, 0.000000, -0.000000, 16.693765, -2056.606496 
3021063717.746182, 0.920266, -0.383879, 0.000000, -0.000000, 14.084387, -1881.580354 
3031068983.675619, 0.907142, -0.413917, 0.000000, -0.000000, 12.073194, -1733.091943 
3041074249.605055, 0.893030, -0.443508, 0.000000, -0.000000, 10.493287, -1605.468599 
3051079515.534492, 0.877947, -0.472620, 0.000000, -0.000000, 9.231780, -1494.546555 
3061084781.463928, 0.861910, -0.501219, 0.000000, -0.000000, 8.210152, -1397.200515 
3071090047.393365, 0.844935, -0.529274, 0.000000, -0.000000, 7.372444, -1311.038896 
3081095313.322802, 0.827043, -0.556755, 0.000000, -0.000000, 6.677928, -1234.200432 
3091100579.252238, 0.808251, -0.583629, 0.000000, -0.000000, 6.096403, -1165.214892 
3101105845.181675, 0.788582, -0.609869, 0.000000, -0.000000, 5.605107, -1102.905494 
3111111111.111111, 0.768057, -0.635444, 0.000000, -0.000000, 5.186625, -1046.319163 
3121116377.040547, 0.746699, -0.660327, 0.000000, -0.000000, 4.827463, -994.675768 
3131121642.969984, 0.724531, -0.684490, 0.000000, -0.000000, 4.517036, -947.330587 
3141126908.899421, 0.701579, -0.707907, 0.000000, -0.000000, 4.246954, -903.746137 
3151132174.828857, 0.677868, -0.730553, 0.000000, -0.000000, 4.010503, -863.470755 
3161137440.758294, 0.653425, -0.752403, 0.000000, -0.000000, 3.802259, -826.122123 
3171142706.687730, 0.628275, -0.773433, 0.000000, -0.000000, 3.617808, -791.374434 
3181147972.617167, 0.602448, -0.793621, 0.000000, -0.000000, 3.453531, -758.948322 
3191153238.546604, 0.575971, -0.812944, 0.000000, -0.000000, 3.306441, -728.602856 
3201158504.476040, 0.548875, -0.831383, 0.000000, -0.000000, 3.174058, -700.129150 
3211163770.405477, 0.521188, -0.848918, 0.000000, -0.000000, 3.054311, -673.345191 
3221169036.334913, 0.492942, -0.865529, 0.000000, -0.000000, 2.945460, -648.091654 
3231174302.264350, 0.464166, -0.881200, 0.000000, -0.000000, 2.846043, -624.228458 
3241179568.193786, 0.434894, -0.895914, 0.000000, -0.000000, 2.754817, -601.631945 
3251184834.123223, 0.405156, -0.909656, 0.000000, -0.000000, 2.670732, -580.192534 
3261190100.052660, 0.374985, -0.922411, 0.000000, -0.000000, 2.592889, -559.812768 
3271195365.982096, 0.344413, -0.934166, 0.000000, -0.000000, 2.520522, -540.405673 
