# stacked metamaterial geometry 
# f [Hz], L [0.001 m]
# Unitcell size lx, ly, lz = 10, 10, 99.931 at center position x = 0 y = 0 z = 0
# Definition of material properties: 
#name =copper,type =const,Kappa =56000000,
#name =FR4,Epsilon =4.4,Kappa =0.048957,type =const,
#name =copperSquares,type =const,Kappa =56000000,
#name =air,type =const,Epsilon =1,
## layer number 1:
# rect patch made of copper. lx, ly, lz = 10, 10, 0.5 at center position x = 0 y = 0 z = -0.25
# background material (if any) is air
# layer number 2:
# rect patch made of FR4. lx, ly, lz = 10, 10, 4 at center position x = 0 y = 0 z = -2.5
# background material (if any) is air
# Re/Im parts of the scattering parameters S11 (refl.) and S21 (transm.) and the real and imaginary part of the impedance as a function of frequency 
# first column is frequency, second and third columns are Re/Im of S11 and S21, respectively.
1000000000.000000, 0.999352, -0.099670, -0.000000, -0.000000, -327.557364, -7559.216099 
1010005265.929437, 0.995311, -0.132259, -0.000000, -0.000000, -175.004183, -5689.711711 
1020010531.858873, 0.990196, -0.164667, -0.000000, -0.000000, -105.266065, -4559.488601 
1030015797.788310, 0.984017, -0.196860, -0.000000, -0.000000, -68.023267, -3802.333953 
1040021063.717746, 0.976786, -0.228800, -0.000000, -0.000000, -46.015921, -3259.534588 
1050026329.647183, 0.968514, -0.260455, -0.000000, -0.000000, -32.056097, -2851.194162 
1060031595.576619, 0.959216, -0.291790, -0.000000, -0.000000, -22.727542, -2532.723251 
1070036861.506056, 0.948906, -0.322772, -0.000000, -0.000000, -16.242466, -2277.280546 
1080042127.435492, 0.937600, -0.353369, -0.000000, -0.000000, -11.593900, -2067.743069 
1090047393.364929, 0.925314, -0.383550, -0.000000, -0.000000, -8.180750, -1892.673512 
1100052659.294365, 0.912065, -0.413285, -0.000000, -0.000000, -5.626891, -1744.141494 
1110057925.223802, 0.897872, -0.442544, -0.000000, -0.000000, -3.687605, -1616.475260 
1120063191.153239, 0.882753, -0.471300, -0.000000, -0.000000, -2.198349, -1505.511104 
1130068457.082675, 0.866728, -0.499524, -0.000000, -0.000000, -1.045334, -1408.123422 
1140073723.012112, 0.849817, -0.527190, -0.000000, -0.000000, -0.147929, -1321.920185 
1150078988.941548, 0.832040, -0.554273, -0.000000, -0.000000, 0.552224, -1245.039661 
1160084254.870985, 0.813418, -0.580746, -0.000000, -0.000000, 1.098171, -1176.011180 
1170089520.800421, 0.793974, -0.606587, -0.000000, -0.000000, 1.522196, -1113.657580 
1180094786.729858, 0.773728, -0.631771, -0.000000, -0.000000, 1.848878, -1057.025463 
1190100052.659294, 0.752704, -0.656277, -0.000000, -0.000000, 2.097188, -1005.334438 
1200105318.588731, 0.730924, -0.680081, -0.000000, -0.000000, 2.281947, -957.939580 
1210110584.518167, 0.708411, -0.703164, -0.000000, -0.000000, 2.414869, -914.303256 
1220115850.447604, 0.685188, -0.725505, -0.000000, -0.000000, 2.505305, -873.973704 
1230121116.377041, 0.661281, -0.747084, -0.000000, -0.000000, 2.560794, -836.568543 
1240126382.306477, 0.636711, -0.767882, -0.000000, 0.000000, 2.587465, -801.761947 
1250131648.235914, 0.611505, -0.787880, -0.000000, 0.000000, 2.590343, -769.274560 
1260136914.165350, 0.585687, -0.807061, -0.000000, 0.000000, 2.573581, -738.865494 
1270142180.094787, 0.559283, -0.825408, -0.000000, 0.000000, 2.540630, -710.325926 
1280147446.024223, 0.532316, -0.842904, -0.000000, 0.000000, 2.494382, -683.473936 
1290152711.953660, 0.504814, -0.859533, -0.000000, 0.000000, 2.437272, -658.150305 
1300157977.883096, 0.476803, -0.875279, -0.000000, 0.000000, 2.371361, -634.215078 
1310163243.812533, 0.448309, -0.890128, -0.000000, 0.000000, 2.298404, -611.544740 
1320168509.741970, 0.419359, -0.904066, -0.000000, 0.000000, 2.219900, -590.029863 
1330173775.671406, 0.389980, -0.917079, -0.000000, 0.000000, 2.137136, -569.573154 
1340179041.600842, 0.360201, -0.929153, -0.000000, 0.000000, 2.051221, -550.087816 
1350184307.530279, 0.330048, -0.940278, -0.000000, 0.000000, 1.963111, -531.496167 
1360189573.459716, 0.299552, -0.950440, -0.000000, 0.000000, 1.873636, -513.728473 
1370194839.389152, 0.268741, -0.959629, -0.000000, 0.000000, 1.783513, -496.721950 
1380200105.318589, 0.237644, -0.967834, -0.000000, 0.000000, 1.693366, -480.419922 
1390205371.248025, 0.206291, -0.975046, -0.000000, 0.000000, 1.603737, -464.771090 
1400210637.177462, 0.174713, -0.981256, -0.000000, 0.000000, 1.515096, -449.728905 
1410215903.106898, 0.142940, -0.986456, -0.000000, 0.000000, 1.427849, -435.251031 
1420221169.036335, 0.111004, -0.990639, -0.000000, 0.000000, 1.342350, -421.298874 
1430226434.965771, 0.078935, -0.993798, -0.000000, 0.000000, 1.258901, -407.837170 
1440231700.895208, 0.046766, -0.995927, -0.000000, 0.000000, 1.177763, -394.833637 
1450236966.824645, 0.014530, -0.997023, -0.000000, 0.000000, 1.099157, -382.258659 
1460242232.754081, -0.017741, -0.997081, -0.000000, 0.000000, 1.023269, -370.085010 
1470247498.683518, -0.050015, -0.996100, -0.000000, 0.000000, 0.950255, -358.287619 
1480252764.612954, -0.082257, -0.994077, -0.000000, 0.000000, 0.880242, -346.843352 
1490258030.542391, -0.114434, -0.991011, -0.000000, 0.000000, 0.813332, -335.730828 
1500263296.471827, -0.146512, -0.986905, -0.000000, 0.000000, 0.749602, -324.930249 
1510268562.401264, -0.178457, -0.981758, -0.000000, 0.000000, 0.689111, -314.423251 
1520273828.330700, -0.210236, -0.975576, -0.000000, 0.000000, 0.631894, -304.192777 
1530279094.260137, -0.241814, -0.968360, -0.000000, 0.000000, 0.577973, -294.222952 
1540284360.189574, -0.273156, -0.960118, -0.000000, 0.000000, 0.527352, -284.498981 
1550289626.119010, -0.304229, -0.950855, -0.000000, 0.000000, 0.480019, -275.007052 
1560294892.048447, -0.334998, -0.940580, -0.000000, 0.000000, 0.435950, -265.734251 
1570300157.977883, -0.365429, -0.929301, -0.000000, 0.000000, 0.395108, -256.668487 
1580305423.907320, -0.395490, -0.917029, 0.000000, 0.000000, 0.357446, -247.798421 
1590310689.836756, -0.425145, -0.903776, 0.000000, 0.000000, 0.322904, -239.113401 
1600315955.766193, -0.454362, -0.889554, 0.000000, 0.000000, 0.291416, -230.603408 
1610321221.695629, -0.483109, -0.874378, 0.000000, 0.000000, 0.262904, -222.259005 
1620326487.625066, -0.511353, -0.858263, 0.000000, 0.000000, 0.237285, -214.071286 
1630331753.554502, -0.539061, -0.841226, 0.000000, 0.000000, 0.214468, -206.031837 
1640337019.483939, -0.566204, -0.823285, 0.000000, 0.000000, 0.194355, -198.132696 
1650342285.413375, -0.592750, -0.804458, 0.000000, 0.000000, 0.176846, -190.366316 
1660347551.342812, -0.618669, -0.784767, 0.000000, 0.000000, 0.161833, -182.725534 
1670352817.272249, -0.643933, -0.764231, 0.000000, 0.000000, 0.149203, -175.203541 
1680358083.201685, -0.668512, -0.742874, 0.000000, 0.000000, 0.138844, -167.793854 
1690363349.131122, -0.692380, -0.720719, 0.000000, 0.000000, 0.130637, -160.490290 
1700368615.060558, -0.715511, -0.697790, 0.000000, 0.000000, 0.124463, -153.286945 
1710373880.989995, -0.737877, -0.674113, 0.000000, 0.000000, 0.120199, -146.178169 
1720379146.919431, -0.759455, -0.649714, 0.000000, 0.000000, 0.117723, -139.158551 
1730384412.848868, -0.780221, -0.624620, 0.000000, 0.000000, 0.116912, -132.222895 
1740389678.778304, -0.800153, -0.598858, 0.000000, 0.000000, 0.117642, -125.366209 
1750394944.707741, -0.819228, -0.572458, 0.000000, 0.000000, 0.119789, -118.583685 
1760400210.637177, -0.837427, -0.545449, 0.000000, 0.000000, 0.123229, -111.870684 
1770405476.566614, -0.854729, -0.517860, 0.000000, 0.000000, 0.127842, -105.222725 
1780410742.496051, -0.871118, -0.489723, 0.000000, 0.000000, 0.133507, -98.635472 
1790416008.425487, -0.886575, -0.461067, 0.000000, 0.000000, 0.140105, -92.104718 
1800421274.354924, -0.901084, -0.431925, 0.000000, 0.000000, 0.147520, -85.626378 
1810426540.284360, -0.914631, -0.402329, 0.000000, 0.000000, 0.155638, -79.196478 
1820431806.213797, -0.927202, -0.372311, 0.000000, 0.000000, 0.164349, -72.811141 
1830437072.143233, -0.938785, -0.341903, 0.000000, 0.000000, 0.173543, -66.466583 
1840442338.072670, -0.949368, -0.311139, 0.000000, 0.000000, 0.183118, -60.159099 
1850447604.002106, -0.958940, -0.280051, 0.000000, 0.000000, 0.192974, -53.885059 
1860452869.931543, -0.967493, -0.248673, 0.000000, 0.000000, 0.203012, -47.640895 
1870458135.860980, -0.975018, -0.217039, 0.000000, 0.000000, 0.213142, -41.423097 
1880463401.790416, -0.981509, -0.185182, -0.000000, 0.000000, 0.223275, -35.228203 
1890468667.719852, -0.986960, -0.153136, -0.000000, 0.000000, 0.233329, -29.052794 
1900473933.649289, -0.991365, -0.120935, -0.000000, 0.000000, 0.243226, -22.893483 
1910479199.578726, -0.994722, -0.088613, -0.000000, 0.000000, 0.252891, -16.746913 
1920484465.508162, -0.997027, -0.056203, -0.000000, 0.000000, 0.262259, -10.609746 
1930489731.437599, -0.998279, -0.023739, -0.000000, 0.000000, 0.271265, -4.478659 
1940494997.367035, -0.998477, 0.008745, -0.000000, 0.000000, 0.279852, 1.649666 
1950500263.296472, -0.997622, 0.041214, -0.000000, 0.000000, 0.287970, 7.778542 
1960505529.225908, -0.995715, 0.073637, -0.000000, 0.000000, 0.295572, 13.911293 
1970510795.155345, -0.992759, 0.105978, -0.000000, 0.000000, 0.302618, 20.051251 
1980516061.084782, -0.988756, 0.138206, -0.000000, 0.000000, 0.309073, 26.201769 
1990521327.014218, -0.983712, 0.170285, -0.000000, 0.000000, 0.314910, 32.366226 
2000526592.943655, -0.977632, 0.202185, -0.000000, 0.000000, 0.320105, 38.548034 
2010531858.873091, -0.970521, 0.233871, -0.000000, 0.000000, 0.324643, 44.750642 
2020537124.802528, -0.962388, 0.265311, -0.000000, 0.000000, 0.328511, 50.977549 
2030542390.731964, -0.953240, 0.296473, -0.000000, 0.000000, 0.331706, 57.232307 
2040547656.661401, -0.943088, 0.327324, -0.000000, 0.000000, 0.334230, 63.518528 
2050552922.590837, -0.931940, 0.357832, -0.000000, 0.000000, 0.336088, 69.839896 
2060558188.520274, -0.919808, 0.387967, -0.000000, 0.000000, 0.337295, 76.200172 
2070563454.449710, -0.906704, 0.417696, -0.000000, 0.000000, 0.337870, 82.603203 
2080568720.379147, -0.892642, 0.446989, -0.000000, 0.000000, 0.337838, 89.052933 
2090573986.308583, -0.877634, 0.475815, -0.000000, 0.000000, 0.337230, 95.553411 
2100579252.238020, -0.861696, 0.504144, -0.000000, 0.000000, 0.336083, 102.108800 
2110584518.167457, -0.844844, 0.531945, -0.000000, 0.000000, 0.334440, 108.723390 
2120589784.096893, -0.827094, 0.559190, -0.000000, 0.000000, 0.332350, 115.401609 
2130595050.026330, -0.808465, 0.585850, -0.000000, 0.000000, 0.329866, 122.148033 
2140600315.955766, -0.788975, 0.611895, 0.000000, 0.000000, 0.327050, 128.967403 
2150605581.885203, -0.768642, 0.637299, 0.000000, 0.000000, 0.323967, 135.864632 
2160610847.814639, -0.747489, 0.662033, 0.000000, 0.000000, 0.320689, 142.844829 
2170616113.744076, -0.725537, 0.686070, 0.000000, 0.000000, 0.317293, 149.913305 
2180621379.673512, -0.702807, 0.709385, 0.000000, 0.000000, 0.313863, 157.075600 
2190626645.602949, -0.679323, 0.731953, 0.000000, 0.000000, 0.310486, 164.337491 
2200631911.532386, -0.655109, 0.753747, 0.000000, 0.000000, 0.307257, 171.705022 
2210637177.461822, -0.630191, 0.774744, 0.000000, 0.000000, 0.304277, 179.184518 
2220642443.391258, -0.604594, 0.794921, 0.000000, 0.000000, 0.301652, 186.782613 
2230647709.320695, -0.578344, 0.814254, 0.000000, 0.000000, 0.299493, 194.506272 
2240652975.250132, -0.551471, 0.832723, 0.000000, 0.000000, 0.297918, 202.362821 
2250658241.179568, -0.524001, 0.850307, 0.000000, 0.000000, 0.297052, 210.359975 
2260663507.109005, -0.495963, 0.866985, 0.000000, 0.000000, 0.297025, 218.505875 
2270668773.038442, -0.467389, 0.882739, 0.000000, 0.000000, 0.297975, 226.809116 
2280674038.967878, -0.438308, 0.897550, 0.000000, 0.000000, 0.300044, 235.278794 
2290679304.897314, -0.408752, 0.911403, 0.000000, 0.000000, 0.303384, 243.924545 
2300684570.826751, -0.378752, 0.924280, 0.000000, 0.000000, 0.308154, 252.756593 
2310689836.756187, -0.348341, 0.936167, 0.000000, 0.000000, 0.314519, 261.785803 
2320695102.685624, -0.317553, 0.947051, 0.000000, 0.000000, 0.322656, 271.023734 
2330700368.615061, -0.286419, 0.956919, 0.000000, 0.000000, 0.332749, 280.482710 
2340705634.544497, -0.254976, 0.965759, 0.000000, 0.000000, 0.344991, 290.175881 
2350710900.473934, -0.223256, 0.973562, 0.000000, 0.000000, 0.359589, 300.117307 
2360716166.403370, -0.191295, 0.980319, 0.000000, 0.000000, 0.376758, 310.322042 
2370721432.332807, -0.159127, 0.986022, 0.000000, 0.000000, 0.396729, 320.806227 
2380726698.262243, -0.126789, 0.990665, 0.000000, 0.000000, 0.419747, 331.587203 
2390731964.191680, -0.094316, 0.994241, 0.000000, 0.000000, 0.446072, 342.683623 
2400737230.121117, -0.061743, 0.996749, 0.000000, 0.000000, 0.475981, 354.115591 
2410742496.050553, -0.029106, 0.998184, 0.000000, 0.000000, 0.509774, 365.904808 
2420747761.979990, 0.003559, 0.998546, 0.000000, 0.000000, 0.547772, 378.074744 
2430753027.909426, 0.036216, 0.997834, 0.000000, 0.000000, 0.590319, 390.650824 
2440758293.838862, 0.068829, 0.996050, 0.000000, 0.000000, 0.637793, 403.660646 
2450763559.768299, 0.101363, 0.993195, 0.000000, 0.000000, 0.690599, 417.134221 
2460768825.697736, 0.133781, 0.989275, 0.000000, 0.000000, 0.749184, 431.104253 
2470774091.627172, 0.166050, 0.984292, 0.000000, 0.000000, 0.814035, 445.606451 
2480779357.556609, 0.198132, 0.978255, 0.000000, 0.000000, 0.885690, 460.679889 
2490784623.486045, 0.229995, 0.971169, 0.000000, 0.000000, 0.964741, 476.367420 
2500789889.415482, 0.261603, 0.963043, 0.000000, 0.000000, 1.051849, 492.716150 
2510795155.344918, 0.292922, 0.953888, 0.000000, 0.000000, 1.147746, 509.777983 
2520800421.274355, 0.323918, 0.943713, 0.000000, 0.000000, 1.253257, 527.610258 
2530805687.203792, 0.354559, 0.932530, 0.000000, -0.000000, 1.369307, 546.276484 
2540810953.133228, 0.384812, 0.920353, 0.000000, -0.000000, 1.496942, 565.847198 
2550816219.062665, 0.414644, 0.907196, 0.000000, -0.000000, 1.637350, 586.400974 
2560821484.992101, 0.444024, 0.893073, 0.000000, -0.000000, 1.791886, 608.025608 
2570826750.921537, 0.472921, 0.878000, 0.000000, -0.000000, 1.962104, 630.819514 
2580832016.850974, 0.501305, 0.861994, 0.000000, -0.000000, 2.149797, 654.893393 
2590837282.780411, 0.529145, 0.845074, 0.000000, -0.000000, 2.357038, 680.372213 
2600842548.709847, 0.556413, 0.827258, 0.000000, -0.000000, 2.586245, 707.397593 
2610847814.639284, 0.583080, 0.808565, 0.000000, -0.000000, 2.840249, 736.130681 
2620853080.568720, 0.609119, 0.789017, 0.000000, -0.000000, 3.122385, 766.755647 
2630858346.498157, 0.634503, 0.768634, 0.000000, -0.000000, 3.436607, 799.483949 
2640863612.427593, 0.659205, 0.747438, 0.000000, -0.000000, 3.787634, 834.559598 
2650868878.357030, 0.683201, 0.725453, 0.000000, -0.000000, 4.181136, 872.265672 
2660874144.286467, 0.706465, 0.702702, 0.000000, -0.000000, 4.623977, 912.932477 
2670879410.215903, 0.728973, 0.679208, 0.000000, -0.000000, 5.124530, 956.947823 
2680884676.145340, 0.750703, 0.654998, 0.000000, -0.000000, 5.693103, 1004.770130 
2690889942.074776, 0.771632, 0.630097, 0.000000, -0.000000, 6.342498, 1056.945259 
2700895208.004213, 0.791738, 0.604531, 0.000000, -0.000000, 7.088777, 1114.128425 
2710900473.933649, 0.811002, 0.578327, 0.000000, -0.000000, 7.952316, 1177.113032 
2720905739.863086, 0.829403, 0.551511, 0.000000, -0.000000, 8.959280, 1246.869139 
2730911005.792522, 0.846923, 0.524113, 0.000000, -0.000000, 10.143716, 1324.595537 
2740916271.721959, 0.863542, 0.496161, 0.000000, -0.000000, 11.550597, 1411.791402 
2750921537.651396, 0.879245, 0.467684, 0.000000, -0.000000, 13.240326, 1510.356672 
2760926803.580832, 0.894015, 0.438711, 0.000000, -0.000000, 15.295564, 1622.735562 
2770932069.510269, 0.907836, 0.409272, 0.000000, -0.000000, 17.831875, 1752.126500 
2780937335.439705, 0.920694, 0.379397, 0.000000, -0.000000, 21.014829, 1902.797347 
2790942601.369142, 0.932575, 0.349119, 0.000000, -0.000000, 25.088461, 2080.573096 
2800947867.298578, 0.943467, 0.318467, 0.000000, -0.000000, 30.424620, 2293.617214 
2810953133.228015, 0.953357, 0.287475, 0.000000, -0.000000, 37.612771, 2553.735831 
2820958399.157452, 0.962236, 0.256172, 0.000000, -0.000000, 47.633158, 2878.664079 
2830963665.086888, 0.970093, 0.224594, 0.000000, 0.000000, 62.215170, 3296.321043 
2840968931.016325, 0.976919, 0.192771, 0.000000, 0.000000, 84.647659, 3853.341083 
2850974196.945761, 0.982706, 0.160737, 0.000000, 0.000000, 121.833337, 4633.900756 
2860979462.875197, 0.987448, 0.128525, 0.000000, 0.000000, 190.368779, 5806.967509 
2870984728.804634, 0.991139, 0.096170, 0.000000, 0.000000, 339.042245, 7768.731756 
2880989994.734071, 0.993774, 0.063704, 0.000000, 0.000000, 768.203925, 11715.556755 
2890995260.663507, 0.995349, 0.031163, 0.000000, 0.000000, 3152.838526, 23651.434951 
2901000526.592944, 0.995862, -0.001420, 0.000000, 0.000000, 162517.739421, -55920.071988 
2911005792.522380, 0.995311, -0.034011, 0.000000, 0.000000, 2620.621501, -21740.068908 
2921011058.451817, 0.993695, -0.066575, 0.000000, 0.000000, 685.603669, -11216.900449 
2931016324.381253, 0.991015, -0.099077, 0.000000, 0.000000, 307.321722, -7542.793607 
2941021590.310690, 0.987272, -0.131482, 0.000000, 0.000000, 172.839314, -5677.322823 
2951026856.240127, 0.982471, -0.163756, 0.000000, 0.000000, 110.219989, -4548.980184 
2961032122.169563, 0.976613, -0.195865, 0.000000, 0.000000, 76.138582, -3792.761190 
2971037388.099000, 0.969705, -0.227773, 0.000000, 0.000000, 55.593864, -3250.438312 
2981042654.028436, 0.961753, -0.259447, 0.000000, 0.000000, 42.281939, -2842.333061 
2991047919.957872, 0.952764, -0.290851, 0.000000, 0.000000, 33.180251, -2523.963293 
3001053185.887309, 0.942746, -0.321952, 0.000000, 0.000000, 26.693270, -2268.544602 
3011058451.816746, 0.931710, -0.352716, 0.000000, 0.000000, 21.914564, -2058.986028 
3021063717.746182, 0.919666, -0.383108, 0.000000, -0.000000, 18.298413, -1883.869154 
3031068983.675619, 0.906626, -0.413096, 0.000000, -0.000000, 15.500430, -1735.275179 
3041074249.605055, 0.892604, -0.442647, 0.000000, -0.000000, 13.294641, -1607.539666 
3051079515.534492, 0.877613, -0.471728, 0.000000, -0.000000, 11.527828, -1496.503648 
3061084781.463928, 0.861670, -0.500306, 0.000000, -0.000000, 10.093145, -1399.044648 
3071090047.393365, 0.844790, -0.528351, 0.000000, -0.000000, 8.914258, -1312.772722 
3081095313.322802, 0.826992, -0.555830, 0.000000, -0.000000, 7.935464, -1235.827538 
3091100579.252238, 0.808293, -0.582713, 0.000000, -0.000000, 7.115352, -1166.739363 
3101105845.181675, 0.788715, -0.608971, 0.000000, -0.000000, 6.422620, -1104.331651 
3111111111.111111, 0.768278, -0.634573, 0.000000, -0.000000, 5.833257, -1047.651395 
3121116377.040547, 0.747003, -0.659492, 0.000000, -0.000000, 5.328593, -995.918434 
3131121642.969984, 0.724914, -0.683699, 0.000000, -0.000000, 4.893943, -948.487958 
3141126908.899421, 0.702034, -0.707168, 0.000000, -0.000000, 4.517621, -904.822359 
3151132174.828857, 0.678389, -0.729872, 0.000000, -0.000000, 4.190242, -864.469836 
3161137440.758294, 0.654004, -0.751785, 0.000000, -0.000000, 3.904194, -827.047921 
3171142706.687730, 0.628906, -0.772884, 0.000000, -0.000000, 3.653254, -792.230658 
3181147972.617167, 0.603122, -0.793144, 0.000000, -0.000000, 3.432294, -759.738533 
3191153238.546604, 0.576681, -0.812543, 0.000000, -0.000000, 3.237060, -729.330476 
3201158504.476040, 0.549611, -0.831060, 0.000000, -0.000000, 3.063996, -700.797464 
3211163770.405477, 0.521942, -0.848674, 0.000000, -0.000000, 2.910116, -673.957355 
3221169036.334913, 0.493705, -0.865365, 0.000000, -0.000000, 2.772894, -648.650701 
3231174302.264350, 0.464931, -0.881115, 0.000000, -0.000000, 2.650185, -624.737304 
3241179568.193786, 0.435651, -0.895907, 0.000000, -0.000000, 2.540158, -602.093398 
3251184834.123223, 0.405898, -0.909723, 0.000000, -0.000000, 2.441241, -580.609295 
3261190100.052660, 0.375705, -0.922550, 0.000000, -0.000000, 2.352083, -560.187438 
3271195365.982096, 0.345104, -0.934373, 0.000000, -0.000000, 2.271513, -540.740759 
