# stacked metamaterial geometry 
# f [Hz], L [0.001 m]
# Unitcell size lx, ly, lz = 10, 10, 49.965 at center position x = 0 y = 0 z = 0
# Definition of material properties: 
#name =copper,type =const,Kappa =56000000,
#name =FR4,Epsilon =4.4,Kappa =0.048957,type =const,
#name =copperSquares,type =const,Kappa =56000000,
#name =air,type =const,Epsilon =1,
## layer number 1:
# square patch made of copperSquares lx, ly, lz = 9, 9, 0.05 at center position x = 0 y = 0 z = -0.025# with circular hole of radius 3.25
# Re/Im parts of the scattering parameters S11 (refl.) and S21 (transm.) and the real and imaginary part of the impedance as a function of frequency 
# first column is frequency, second and third columns are Re/Im of S11 and S21, respectively.
2000000000.000000, -0.270758, -0.003536, -0.018658, -0.962826, 216.187095, -1.649992 
2010005558.643691, -0.272099, -0.001437, -0.026317, -0.962295, 215.565736, -0.669236 
2020011117.287382, -0.273424, 0.000682, -0.033968, -0.961700, 214.950355, 0.317084 
2030016675.931073, -0.274731, 0.002823, -0.041610, -0.961043, 214.340948, 1.308921 
2040022234.574764, -0.276020, 0.004984, -0.049245, -0.960324, 213.737511, 2.306231 
2050027793.218455, -0.277292, 0.007165, -0.056870, -0.959542, 213.140040, 3.308972 
2060033351.862146, -0.278546, 0.009367, -0.064486, -0.958697, 212.548530, 4.317101 
2070038910.505836, -0.279781, 0.011588, -0.072092, -0.957791, 211.962976, 5.330578 
2080044469.149528, -0.280998, 0.013830, -0.079687, -0.956822, 211.383373, 6.349360 
2090050027.793218, -0.282196, 0.016091, -0.087271, -0.955790, 210.809716, 7.373411 
2100055586.436909, -0.283376, 0.018372, -0.094844, -0.954697, 210.241998, 8.402690 
2110061145.080600, -0.284536, 0.020672, -0.102404, -0.953543, 209.680215, 9.437161 
2120066703.724291, -0.285676, 0.022992, -0.109952, -0.952326, 209.124358, 10.476787 
2130072262.367982, -0.286797, 0.025330, -0.117486, -0.951048, 208.574423, 11.521532 
2140077821.011673, -0.287898, 0.027688, -0.125007, -0.949708, 208.030402, 12.571362 
2150083379.655364, -0.288979, 0.030064, -0.132514, -0.948307, 207.492289, 13.626244 
2160088938.299055, -0.290040, 0.032459, -0.140005, -0.946845, 206.960076, 14.686143 
2170094496.942746, -0.291079, 0.034872, -0.147482, -0.945322, 206.433756, 15.751030 
2180100055.586437, -0.292098, 0.037303, -0.154942, -0.943738, 205.913322, 16.820871 
2190105614.230128, -0.293096, 0.039752, -0.162387, -0.942093, 205.398767, 17.895638 
2200111172.873819, -0.294073, 0.042219, -0.169814, -0.940388, 204.890083, 18.975302 
2210116731.517510, -0.295028, 0.044704, -0.177225, -0.938623, 204.387262, 20.059833 
2220122290.161201, -0.295962, 0.047206, -0.184617, -0.936797, 203.890297, 21.149205 
2230127848.804892, -0.296873, 0.049725, -0.191991, -0.934911, 203.399179, 22.243392 
2240133407.448583, -0.297762, 0.052261, -0.199346, -0.932966, 202.913902, 23.342366 
2250138966.092274, -0.298629, 0.054814, -0.206682, -0.930961, 202.434456, 24.446105 
2260144524.735964, -0.299474, 0.057384, -0.213998, -0.928896, 201.960835, 25.554583 
2270150083.379655, -0.300295, 0.059970, -0.221294, -0.926772, 201.493029, 26.667779 
2280155642.023346, -0.301094, 0.062572, -0.228569, -0.924590, 201.031032, 27.785669 
2290161200.667037, -0.301869, 0.065190, -0.235823, -0.922348, 200.574835, 28.908233 
2300166759.310728, -0.302621, 0.067824, -0.243054, -0.920048, 200.124430, 30.035450 
2310172317.954419, -0.303350, 0.070474, -0.250264, -0.917689, 199.679810, 31.167301 
2320177876.598110, -0.304054, 0.073139, -0.257451, -0.915272, 199.240966, 32.303766 
2330183435.241801, -0.304735, 0.075819, -0.264614, -0.912797, 198.807890, 33.444829 
2340188993.885492, -0.305391, 0.078514, -0.271754, -0.910264, 198.380576, 34.590471 
2350194552.529183, -0.306023, 0.081223, -0.278869, -0.907674, 197.959014, 35.740678 
2360200111.172874, -0.306630, 0.083947, -0.285960, -0.905027, 197.543198, 36.895432 
2370205669.816565, -0.307213, 0.086686, -0.293025, -0.902322, 197.133119, 38.054720 
2380211228.460256, -0.307770, 0.089438, -0.300065, -0.899561, 196.728771, 39.218529 
2390216787.103947, -0.308303, 0.092204, -0.307079, -0.896743, 196.330147, 40.386844 
2400222345.747638, -0.308810, 0.094983, -0.314066, -0.893869, 195.937238, 41.559654 
2410227904.391328, -0.309291, 0.097776, -0.321026, -0.890938, 195.550038, 42.736948 
2420233463.035019, -0.309747, 0.100582, -0.327958, -0.887952, 195.168540, 43.918715 
2430239021.678710, -0.310177, 0.103400, -0.334863, -0.884910, 194.792737, 45.104945 
2440244580.322402, -0.310581, 0.106231, -0.341739, -0.881814, 194.422623, 46.295630 
2450250138.966092, -0.310959, 0.109075, -0.348586, -0.878662, 194.058191, 47.490761 
2460255697.609783, -0.311310, 0.111930, -0.355404, -0.875455, 193.699434, 48.690331 
2470261256.253474, -0.311635, 0.114797, -0.362191, -0.872194, 193.346348, 49.894333 
2480266814.897165, -0.311933, 0.117676, -0.368949, -0.868879, 192.998925, 51.102761 
2490272373.540856, -0.312205, 0.120566, -0.375676, -0.865509, 192.657160, 52.315611 
2500277932.184547, -0.312449, 0.123467, -0.382372, -0.862087, 192.321048, 53.532879 
2510283490.828238, -0.312666, 0.126379, -0.389036, -0.858611, 191.990583, 54.754559 
2520289049.471929, -0.312856, 0.129302, -0.395668, -0.855081, 191.665761, 55.980651 
2530294608.115620, -0.313018, 0.132234, -0.402267, -0.851500, 191.346577, 57.211152 
2540300166.759311, -0.313152, 0.135177, -0.408834, -0.847865, 191.033025, 58.446061 
2550305725.403002, -0.313259, 0.138130, -0.415367, -0.844179, 190.725103, 59.685376 
2560311284.046693, -0.313338, 0.141092, -0.421867, -0.840441, 190.422805, 60.929100 
2570316842.690383, -0.313389, 0.144063, -0.428332, -0.836652, 190.126128, 62.177231 
2580322401.334074, -0.313412, 0.147043, -0.434763, -0.832811, 189.835069, 63.429773 
2590327959.977766, -0.313406, 0.150032, -0.441159, -0.828919, 189.549624, 64.686728 
2600333518.621456, -0.313372, 0.153029, -0.447519, -0.824977, 189.269790, 65.948099 
2610339077.265147, -0.313309, 0.156034, -0.453844, -0.820985, 188.995566, 67.213890 
2620344635.908838, -0.313217, 0.159047, -0.460132, -0.816943, 188.726948, 68.484106 
2630350194.552529, -0.313097, 0.162068, -0.466384, -0.812852, 188.463935, 69.758752 
2640355753.196220, -0.312947, 0.165096, -0.472598, -0.808711, 188.206526, 71.037835 
2650361311.839911, -0.312769, 0.168131, -0.478775, -0.804522, 187.954717, 72.321360 
2660366870.483602, -0.312561, 0.171173, -0.484914, -0.800284, 187.708510, 73.609337 
2670372429.127293, -0.312324, 0.174221, -0.491015, -0.795997, 187.467903, 74.901773 
2680377987.770984, -0.312058, 0.177276, -0.497078, -0.791664, 187.232896, 76.198677 
2690383546.414675, -0.311762, 0.180336, -0.503101, -0.787282, 187.003490, 77.500059 
2700389105.058366, -0.311436, 0.183402, -0.509085, -0.782854, 186.779683, 78.805930 
2710394663.702057, -0.311080, 0.186473, -0.515029, -0.778379, 186.561479, 80.116301 
2720400222.345748, -0.310695, 0.189550, -0.520933, -0.773858, 186.348877, 81.431184 
2730405780.989439, -0.310280, 0.192631, -0.526797, -0.769290, 186.141879, 82.750591 
2740411339.633130, -0.309835, 0.195716, -0.532619, -0.764677, 185.940488, 84.074536 
2750416898.276821, -0.309359, 0.198806, -0.538400, -0.760019, 185.744706, 85.403034 
2760422456.920511, -0.308853, 0.201899, -0.544140, -0.755316, 185.554536, 86.736097 
2770428015.564202, -0.308317, 0.204996, -0.549838, -0.750569, 185.369981, 88.073744 
2780433574.207893, -0.307751, 0.208097, -0.555493, -0.745777, 185.191044, 89.415988 
2790439132.851584, -0.307154, 0.211200, -0.561106, -0.740942, 185.017731, 90.762848 
2800444691.495275, -0.306527, 0.214306, -0.566676, -0.736064, 184.850045, 92.114341 
2810450250.138966, -0.305869, 0.217414, -0.572202, -0.731142, 184.687992, 93.470486 
2820455808.782657, -0.305180, 0.220524, -0.577685, -0.726179, 184.531578, 94.831301 
2830461367.426348, -0.304460, 0.223637, -0.583123, -0.721173, 184.380807, 96.196806 
2840466926.070039, -0.303710, 0.226750, -0.588518, -0.716125, 184.235687, 97.567022 
2850472484.713730, -0.302929, 0.229865, -0.593867, -0.711036, 184.096225, 98.941970 
2860478043.357421, -0.302117, 0.232981, -0.599172, -0.705906, 183.962428, 100.321672 
2870483602.001112, -0.301274, 0.236097, -0.604431, -0.700735, 183.834305, 101.706151 
2880489160.644803, -0.300399, 0.239213, -0.609644, -0.695525, 183.711862, 103.095429 
2890494719.288494, -0.299494, 0.242330, -0.614812, -0.690275, 183.595111, 104.489531 
2900500277.932185, -0.298557, 0.245446, -0.619933, -0.684985, 183.484060, 105.888482 
2910505836.575875, -0.297590, 0.248561, -0.625008, -0.679657, 183.378718, 107.292307 
2920511395.219566, -0.296591, 0.251676, -0.630036, -0.674290, 183.279098, 108.701032 
2930516953.863257, -0.295560, 0.254789, -0.635016, -0.668886, 183.185210, 110.114684 
2940522512.506948, -0.294499, 0.257901, -0.639949, -0.663444, 183.097065, 111.533291 
2950528071.150640, -0.293406, 0.261010, -0.644835, -0.657964, 183.014676, 112.956882 
2960533629.794330, -0.292282, 0.264118, -0.649672, -0.652448, 182.938056, 114.385485 
2970539188.438021, -0.291126, 0.267223, -0.654461, -0.646896, 182.867218, 115.819130 
2980544747.081712, -0.289939, 0.270325, -0.659202, -0.641307, 182.802176, 117.257847 
2990550305.725403, -0.288720, 0.273424, -0.663893, -0.635684, 182.742946, 118.701669 
3000555864.369094, -0.287470, 0.276519, -0.668535, -0.630025, 182.689541, 120.150626 
3010561423.012785, -0.286189, 0.279611, -0.673128, -0.624332, 182.641979, 121.604752 
3020566981.656476, -0.284876, 0.282699, -0.677672, -0.618605, 182.600275, 123.064081 
3030572540.300167, -0.283531, 0.285782, -0.682165, -0.612844, 182.564447, 124.528646 
3040578098.943858, -0.282155, 0.288861, -0.686608, -0.607050, 182.534512, 125.998482 
3050583657.587549, -0.280748, 0.291934, -0.691001, -0.601223, 182.510490, 127.473625 
3060589216.231240, -0.279309, 0.295003, -0.695343, -0.595364, 182.492398, 128.954112 
3070594774.874930, -0.277838, 0.298065, -0.699634, -0.589473, 182.480258, 130.439980 
3080600333.518621, -0.276336, 0.301122, -0.703874, -0.583551, 182.474089, 131.931266 
3090605892.162313, -0.274803, 0.304172, -0.708062, -0.577598, 182.473912, 133.428010 
3100611450.806004, -0.273238, 0.307216, -0.712199, -0.571614, 182.479751, 134.930251 
3110617009.449695, -0.271642, 0.310253, -0.716285, -0.565600, 182.491626, 136.438030 
3120622568.093385, -0.270014, 0.313283, -0.720318, -0.559557, 182.509563, 137.951387 
3130628126.737076, -0.268355, 0.316305, -0.724298, -0.553484, 182.533584, 139.470364 
3140633685.380767, -0.266665, 0.319319, -0.728227, -0.547383, 182.563715, 140.995004 
3150639244.024458, -0.264943, 0.322326, -0.732102, -0.541254, 182.599982, 142.525351 
3160644802.668149, -0.263190, 0.325323, -0.735925, -0.535097, 182.642410, 144.061448 
3170650361.311840, -0.261405, 0.328312, -0.739695, -0.528913, 182.691028, 145.603341 
3180655919.955531, -0.259590, 0.331292, -0.743411, -0.522702, 182.745863, 147.151075 
3190661478.599222, -0.257743, 0.334263, -0.747074, -0.516465, 182.806944, 148.704697 
3200667037.242913, -0.255865, 0.337223, -0.750683, -0.510202, 182.874302, 150.264255 
3210672595.886604, -0.253956, 0.340174, -0.754238, -0.503913, 182.947965, 151.829797 
3220678154.530294, -0.252016, 0.343114, -0.757740, -0.497600, 183.027967, 153.401372 
3230683713.173985, -0.250045, 0.346044, -0.761187, -0.491263, 183.114339, 154.979030 
3240689271.817677, -0.248043, 0.348963, -0.764579, -0.484901, 183.207115, 156.562822 
3250694830.461368, -0.246010, 0.351870, -0.767918, -0.478516, 183.306328, 158.152799 
3260700389.105059, -0.243946, 0.354766, -0.771201, -0.472108, 183.412014, 159.749014 
3270705947.748750, -0.241852, 0.357650, -0.774430, -0.465678, 183.524209, 161.351521 
3280711506.392440, -0.239727, 0.360521, -0.777603, -0.459225, 183.642949, 162.960373 
3290717065.036131, -0.237571, 0.363380, -0.780722, -0.452751, 183.768273, 164.575626 
3300722623.679822, -0.235385, 0.366227, -0.783785, -0.446256, 183.900219, 166.197335 
3310728182.323513, -0.233168, 0.369060, -0.786793, -0.439741, 184.038828, 167.825559 
3320733740.967204, -0.230921, 0.371879, -0.789745, -0.433205, 184.184140, 169.460353 
3330739299.610895, -0.228644, 0.374685, -0.792642, -0.426650, 184.336197, 171.101778 
3340744858.254586, -0.226337, 0.377477, -0.795483, -0.420076, 184.495042, 172.749893 
3350750416.898277, -0.223999, 0.380254, -0.798268, -0.413483, 184.660720, 174.404759 
3360755975.541968, -0.221632, 0.383017, -0.800996, -0.406872, 184.833275, 176.066436 
3370761534.185658, -0.219234, 0.385765, -0.803669, -0.400244, 185.012754, 177.734988 
3380767092.829350, -0.216807, 0.388497, -0.806285, -0.393598, 185.199203, 179.410478 
3390772651.473041, -0.214350, 0.391214, -0.808845, -0.386936, 185.392673, 181.092971 
3400778210.116732, -0.211864, 0.393915, -0.811349, -0.380257, 185.593212, 182.782531 
3410783768.760423, -0.209348, 0.396600, -0.813796, -0.373563, 185.800871, 184.479225 
3420789327.404114, -0.206803, 0.399268, -0.816186, -0.366854, 186.015702, 186.183120 
3430794886.047804, -0.204228, 0.401919, -0.818520, -0.360130, 186.237759, 187.894285 
3440800444.691495, -0.201625, 0.404554, -0.820797, -0.353391, 186.467097, 189.612790 
3450806003.335186, -0.198992, 0.407170, -0.823016, -0.346640, 186.703770, 191.338704 
3460811561.978877, -0.196330, 0.409770, -0.825179, -0.339874, 186.947837, 193.072099 
3470817120.622568, -0.193640, 0.412351, -0.827285, -0.333097, 187.199356, 194.813048 
3480822679.266259, -0.190921, 0.414914, -0.829334, -0.326307, 187.458387, 196.561623 
3490828237.909950, -0.188174, 0.417458, -0.831326, -0.319505, 187.724991, 198.317901 
3500833796.553641, -0.185398, 0.419983, -0.833260, -0.312692, 187.999230, 200.081956 
3510839355.197332, -0.182594, 0.422489, -0.835137, -0.305868, 188.281169, 201.853866 
3520844913.841023, -0.179762, 0.424976, -0.836957, -0.299034, 188.570873, 203.633708 
3530850472.484714, -0.176902, 0.427443, -0.838719, -0.292190, 188.868409, 205.421561 
3540856031.128405, -0.174014, 0.429890, -0.840424, -0.285337, 189.173846, 207.217506 
3550861589.772096, -0.171099, 0.432316, -0.842072, -0.278476, 189.487254, 209.021624 
3560867148.415787, -0.168156, 0.434722, -0.843662, -0.271606, 189.808704, 210.833997 
3570872707.059478, -0.165186, 0.437107, -0.845195, -0.264728, 190.138269, 212.654710 
3580878265.703169, -0.162189, 0.439471, -0.846670, -0.257843, 190.476025, 214.483847 
3590883824.346859, -0.159165, 0.441814, -0.848087, -0.250951, 190.822048, 216.321494 
3600889382.990551, -0.156113, 0.444134, -0.849448, -0.244053, 191.176415, 218.167739 
3610894941.634241, -0.153036, 0.446433, -0.850750, -0.237149, 191.539208, 220.022671 
3620900500.277932, -0.149931, 0.448709, -0.851995, -0.230240, 191.910508, 221.886378 
3630906058.921623, -0.146801, 0.450963, -0.853183, -0.223325, 192.290397, 223.758953 
3640911617.565314, -0.143644, 0.453193, -0.854313, -0.216407, 192.678963, 225.640487 
3650917176.209005, -0.140461, 0.455401, -0.855385, -0.209485, 193.076290, 227.531075 
3660922734.852696, -0.137253, 0.457585, -0.856400, -0.202559, 193.482470, 229.430812 
3670928293.496387, -0.134019, 0.459746, -0.857358, -0.195631, 193.897593, 231.339793 
3680933852.140078, -0.130759, 0.461883, -0.858258, -0.188700, 194.321751, 233.258116 
3690939410.783769, -0.127475, 0.463995, -0.859100, -0.181767, 194.755041, 235.185882 
3700944969.427460, -0.124165, 0.466083, -0.859885, -0.174833, 195.197559, 237.123189 
3710950528.071151, -0.120830, 0.468146, -0.860613, -0.167898, 195.649404, 239.070140 
3720956086.714842, -0.117471, 0.470184, -0.861284, -0.160962, 196.110678, 241.026839 
3730961645.358533, -0.114088, 0.472197, -0.861897, -0.154027, 196.581485, 242.993390 
3740967204.002223, -0.110680, 0.474184, -0.862453, -0.147092, 197.061930, 244.969899 
3750972762.645915, -0.107248, 0.476146, -0.862951, -0.140158, 197.552122, 246.956475 
3760978321.289605, -0.103792, 0.478081, -0.863393, -0.133225, 198.052171, 248.953225 
3770983879.933296, -0.100313, 0.479991, -0.863777, -0.126295, 198.562190, 250.960262 
3780989438.576987, -0.096810, 0.481873, -0.864105, -0.119367, 199.082295, 252.977697 
3790994997.220678, -0.093284, 0.483729, -0.864376, -0.112442, 199.612603, 255.005644 
3801000555.864369, -0.089736, 0.485558, -0.864589, -0.105520, 200.153236, 257.044219 
3811006114.508060, -0.086164, 0.487359, -0.864746, -0.098603, 200.704315, 259.093538 
3821011673.151751, -0.082570, 0.489133, -0.864846, -0.091690, 201.265968, 261.153721 
3831017231.795442, -0.078953, 0.490880, -0.864890, -0.084781, 201.838322, 263.224887 
3841022790.439133, -0.075315, 0.492598, -0.864877, -0.077878, 202.421509, 265.307159 
3851028349.082824, -0.071655, 0.494288, -0.864808, -0.070981, 203.015662, 267.400660 
3861033907.726515, -0.067973, 0.495949, -0.864682, -0.064090, 203.620920, 269.505516 
3871039466.370206, -0.064269, 0.497582, -0.864500, -0.057206, 204.237423, 271.621854 
3881045025.013897, -0.060545, 0.499186, -0.864262, -0.050329, 204.865312, 273.749802 
3891050583.657588, -0.056800, 0.500760, -0.863968, -0.043459, 205.504736, 275.889491 
3901056142.301279, -0.053034, 0.502305, -0.863618, -0.036598, 206.155842, 278.041055 
3911061700.944970, -0.049247, 0.503821, -0.863212, -0.029745, 206.818785, 280.204627 
3921067259.588660, -0.045441, 0.505306, -0.862750, -0.022902, 207.493720, 282.380343 
3931072818.232351, -0.041615, 0.506762, -0.862233, -0.016068, 208.180807, 284.568341 
3941078376.876042, -0.037768, 0.508187, -0.861661, -0.009244, 208.880209, 286.768762 
3951083935.519733, -0.033903, 0.509582, -0.861033, -0.002431, 209.592092, 288.981748 
3961089494.163424, -0.030018, 0.510946, -0.860350, 0.004372, 210.316627, 291.207441 
3971095052.807115, -0.026115, 0.512279, -0.859612, 0.011163, 211.053989, 293.445989 
3981100611.450806, -0.022193, 0.513581, -0.858819, 0.017942, 211.804354, 295.697539 
3991106170.094497, -0.018252, 0.514851, -0.857972, 0.024710, 212.567906, 297.962240 
4001111728.738188, -0.014293, 0.516090, -0.857070, 0.031464, 213.344830, 300.240246 
4011117287.381879, -0.010317, 0.517297, -0.856113, 0.038205, 214.135316, 302.531709 
4021122846.025570, -0.006323, 0.518472, -0.855102, 0.044932, 214.939559, 304.836787 
4031128404.669261, -0.002311, 0.519615, -0.854037, 0.051646, 215.757758, 307.155637 
4041133963.312952, 0.001717, 0.520726, -0.852919, 0.058345, 216.590115, 309.488420 
4051139521.956643, 0.005762, 0.521804, -0.851746, 0.065029, 217.436839, 311.835299 
4061145080.600334, 0.009824, 0.522849, -0.850520, 0.071697, 218.298141, 314.196439 
4071150639.244024, 0.013902, 0.523861, -0.849241, 0.078350, 219.174240, 316.572007 
4081156197.887715, 0.017995, 0.524840, -0.847908, 0.084987, 220.065357, 318.962172 
4091161756.531406, 0.022105, 0.525786, -0.846522, 0.091606, 220.971720, 321.367107 
4101167315.175097, 0.026230, 0.526699, -0.845084, 0.098209, 221.893560, 323.786985 
4111172873.818789, 0.030370, 0.527577, -0.843592, 0.104794, 222.831117, 326.221984 
4121178432.462480, 0.034524, 0.528422, -0.842049, 0.111361, 223.784632, 328.672282 
4131183991.106170, 0.038693, 0.529233, -0.840453, 0.117909, 224.754354, 331.138060 
4141189549.749861, 0.042877, 0.530009, -0.838805, 0.124439, 225.740539, 333.619503 
4151195108.393552, 0.047074, 0.530751, -0.837105, 0.130950, 226.743446, 336.116797 
4161200667.037243, 0.051285, 0.531459, -0.835354, 0.137440, 227.763341, 338.630131 
4171206225.680934, 0.055509, 0.532132, -0.833551, 0.143911, 228.800497, 341.159696 
4181211784.324625, 0.059746, 0.532770, -0.831697, 0.150361, 229.855193, 343.705686 
4191217342.968316, 0.063996, 0.533373, -0.829792, 0.156790, 230.927714, 346.268298 
4201222901.612007, 0.068259, 0.533941, -0.827836, 0.163198, 232.018352, 348.847732 
4211228460.255698, 0.072533, 0.534474, -0.825830, 0.169584, 233.127406, 351.444189 
4221234018.899389, 0.076820, 0.534971, -0.823773, 0.175948, 234.255182, 354.057874 
4231239577.543080, 0.081118, 0.535432, -0.821666, 0.182290, 235.401992, 356.688994 
4241245136.186770, 0.085427, 0.535858, -0.819510, 0.188608, 236.568158, 359.337760 
