# stacked metamaterial geometry 
# f [Hz], L [0.001 m]
# Unitcell size lx, ly, lz = 10, 10, 99.931 at center position x = 0 y = 0 z = 0
# Definition of material properties: 
#name =copper,type =const,Kappa =56000000,
#name =FR4,Epsilon =4.4,Kappa =0.048957,type =const,
#name =copperSquares,type =const,Kappa =56000000,
#name =air,type =const,Epsilon =1,
## layer number 1:
# rect patch made of copper. lx, ly, lz = 10, 10, 0.5 at center position x = 0 y = 0 z = -0.25
# background material (if any) is air
# layer number 2:
# rect patch made of FR4. lx, ly, lz = 10, 10, 4 at center position x = 0 y = 0 z = -2.5
# background material (if any) is air
# Re/Im parts of the scattering parameters S11 (refl.) and S21 (transm.) and the real and imaginary part of the impedance as a function of frequency 
# first column is frequency, second and third columns are Re/Im of S11 and S21, respectively.
1000000000.000000, 0.999929, -0.098660, -0.000000, -0.000000, -371.231414, -7636.905564 
1010005265.929437, 0.995979, -0.131311, -0.000000, -0.000000, -201.196804, -5732.600942 
1020010531.858873, 0.990949, -0.163790, -0.000000, -0.000000, -123.291699, -4586.147623 
1030015797.788310, 0.984847, -0.196061, -0.000000, -0.000000, -81.471127, -3820.173388 
1040021063.717746, 0.977684, -0.228086, -0.000000, -0.000000, -56.584062, -3272.074277 
1050026329.647183, 0.969472, -0.259832, -0.000000, -0.000000, -40.663225, -2860.314352 
1060031595.576619, 0.960224, -0.291262, -0.000000, -0.000000, -29.920031, -2539.517334 
1070036861.506056, 0.949954, -0.322344, -0.000000, -0.000000, -22.368907, -2282.426613 
1080042127.435492, 0.938678, -0.353043, -0.000000, -0.000000, -16.889092, -2071.683449 
1090047393.364929, 0.926412, -0.383329, -0.000000, -0.000000, -12.809812, -1895.708755 
1100052659.294365, 0.913173, -0.413169, -0.000000, -0.000000, -9.710095, -1746.482799 
1110057925.223802, 0.898980, -0.442534, -0.000000, -0.000000, -7.315151, -1618.275289 
1120063191.153239, 0.883850, -0.471393, -0.000000, -0.000000, -5.439574, -1506.882890 
1130068457.082675, 0.867805, -0.499719, -0.000000, -0.000000, -3.954681, -1409.152410 
1140073723.012112, 0.850864, -0.527484, -0.000000, -0.000000, -2.768940, -1322.672143 
1150078988.941548, 0.833048, -0.554661, -0.000000, -0.000000, -1.815840, -1245.566018 
1160084254.870985, 0.814378, -0.581224, -0.000000, -0.000000, -1.046129, -1176.352723 
1170089520.800421, 0.794878, -0.607149, -0.000000, -0.000000, -0.422714, -1113.847059 
1180094786.729858, 0.774569, -0.632411, -0.000000, -0.000000, 0.082762, -1057.089470 
1190100052.659294, 0.753475, -0.656987, -0.000000, -0.000000, 0.492277, -1005.294780 
1200105318.588731, 0.731619, -0.680854, -0.000000, -0.000000, 0.823077, -957.814300 
1210110584.518167, 0.709026, -0.703992, -0.000000, -0.000000, 1.088848, -914.107403 
1220115850.447604, 0.685719, -0.726379, -0.000000, -0.000000, 1.300567, -873.719918 
1230121116.377041, 0.661723, -0.747996, -0.000000, -0.000000, 1.467117, -836.267509 
1240126382.306477, 0.637064, -0.768823, -0.000000, -0.000000, 1.595757, -801.422748 
1250131648.235914, 0.611766, -0.788841, -0.000000, 0.000000, 1.692465, -768.904953 
1260136914.165350, 0.585856, -0.808033, -0.000000, 0.000000, 1.762199, -738.472132 
1270142180.094787, 0.559359, -0.826381, -0.000000, 0.000000, 1.809106, -709.914538 
1280147446.024223, 0.532302, -0.843870, -0.000000, 0.000000, 1.836673, -683.049464 
1290152711.953660, 0.504711, -0.860483, -0.000000, 0.000000, 1.847853, -657.717025 
1300157977.883096, 0.476614, -0.876206, -0.000000, 0.000000, 1.845159, -633.776695 
1310163243.812533, 0.448038, -0.891024, -0.000000, 0.000000, 1.830744, -611.104464 
1320168509.741970, 0.419010, -0.904923, -0.000000, 0.000000, 1.806458, -589.590477 
1330173775.671406, 0.389558, -0.917890, -0.000000, 0.000000, 1.773900, -569.137069 
1340179041.600842, 0.359711, -0.929913, -0.000000, 0.000000, 1.734457, -549.657115 
1350184307.530279, 0.329498, -0.940981, -0.000000, 0.000000, 1.689337, -531.072644 
1360189573.459716, 0.298947, -0.951081, -0.000000, 0.000000, 1.639596, -513.313668 
1370194839.389152, 0.268088, -0.960204, -0.000000, 0.000000, 1.586159, -496.317177 
1380200105.318589, 0.236950, -0.968340, -0.000000, 0.000000, 1.529837, -480.026293 
1390205371.248025, 0.205563, -0.975481, -0.000000, 0.000000, 1.471347, -464.389536 
1400210637.177462, 0.173959, -0.981617, -0.000000, 0.000000, 1.411317, -449.360196 
1410215903.106898, 0.142167, -0.986743, -0.000000, 0.000000, 1.350304, -434.895790 
1420221169.036335, 0.110219, -0.990850, -0.000000, 0.000000, 1.288798, -420.957592 
1430226434.965771, 0.078146, -0.993935, -0.000000, 0.000000, 1.227233, -407.510222 
1440231700.895208, 0.045980, -0.995991, -0.000000, 0.000000, 1.165991, -394.521290 
1450236966.824645, 0.013753, -0.997016, -0.000000, 0.000000, 1.105408, -381.961081 
1460242232.754081, -0.018502, -0.997005, -0.000000, 0.000000, 1.045779, -369.802284 
1470247498.683518, -0.050753, -0.995957, -0.000000, 0.000000, 0.987364, -358.019748 
1480252764.612954, -0.082967, -0.993871, -0.000000, 0.000000, 0.930389, -346.590268 
1490258030.542391, -0.115111, -0.990748, -0.000000, 0.000000, 0.875049, -335.492397 
1500263296.471827, -0.147152, -0.986587, -0.000000, 0.000000, 0.821512, -324.706280 
1510268562.401264, -0.179056, -0.981392, -0.000000, 0.000000, 0.769922, -314.213503 
1520273828.330700, -0.210789, -0.975165, -0.000000, 0.000000, 0.720401, -303.996961 
1530279094.260137, -0.242319, -0.967910, -0.000000, 0.000000, 0.673047, -294.040738 
1540284360.189574, -0.273611, -0.959635, -0.000000, 0.000000, 0.627942, -284.330002 
1550289626.119010, -0.304631, -0.950344, -0.000000, 0.000000, 0.585149, -274.850912 
1560294892.048447, -0.335347, -0.940046, -0.000000, 0.000000, 0.544715, -265.590526 
1570300157.977883, -0.365725, -0.928750, -0.000000, 0.000000, 0.506671, -256.536730 
1580305423.907320, -0.395731, -0.916467, -0.000000, 0.000000, 0.471037, -247.678164 
1590310689.836756, -0.425333, -0.903207, -0.000000, 0.000000, 0.437818, -239.004163 
1600315955.766193, -0.454498, -0.888984, 0.000000, 0.000000, 0.407007, -230.504694 
1610321221.695629, -0.483194, -0.873811, 0.000000, 0.000000, 0.378587, -222.170311 
1620326487.625066, -0.511388, -0.857704, 0.000000, 0.000000, 0.352532, -213.992103 
1630331753.554502, -0.539050, -0.840679, 0.000000, 0.000000, 0.328805, -205.961653 
1640337019.483939, -0.566149, -0.822753, 0.000000, 0.000000, 0.307362, -198.070998 
1650342285.413375, -0.592653, -0.803945, 0.000000, 0.000000, 0.288150, -190.312593 
1660347551.342812, -0.618534, -0.784275, 0.000000, 0.000000, 0.271110, -182.679281 
1670352817.272249, -0.643763, -0.763764, 0.000000, 0.000000, 0.256177, -175.164259 
1680358083.201685, -0.668311, -0.742433, 0.000000, 0.000000, 0.243280, -167.761051 
1690363349.131122, -0.692151, -0.720306, 0.000000, 0.000000, 0.232342, -160.463488 
1700368615.060558, -0.715256, -0.697407, 0.000000, 0.000000, 0.223282, -153.265676 
1710373880.989995, -0.737601, -0.673760, 0.000000, 0.000000, 0.216015, -146.161981 
1720379146.919431, -0.759161, -0.649392, 0.000000, 0.000000, 0.210453, -139.147006 
1730384412.848868, -0.779913, -0.624328, 0.000000, 0.000000, 0.206505, -132.215575 
1740389678.778304, -0.799832, -0.598598, 0.000000, 0.000000, 0.204077, -125.362712 
1750394944.707741, -0.818899, -0.572228, 0.000000, 0.000000, 0.203074, -118.583630 
1760400210.637177, -0.837091, -0.545248, 0.000000, 0.000000, 0.203397, -111.873709 
1770405476.566614, -0.854390, -0.517688, 0.000000, 0.000000, 0.204948, -105.228491 
1780410742.496051, -0.870777, -0.489578, 0.000000, 0.000000, 0.207629, -98.643661 
1790416008.425487, -0.886234, -0.460949, 0.000000, 0.000000, 0.211340, -92.115036 
1800421274.354924, -0.900746, -0.431831, 0.000000, 0.000000, 0.215981, -85.638553 
1810426540.284360, -0.914297, -0.402259, 0.000000, 0.000000, 0.221454, -79.210262 
1820431806.213797, -0.926873, -0.372262, 0.000000, 0.000000, 0.227660, -72.826311 
1830437072.143233, -0.938461, -0.341875, 0.000000, 0.000000, 0.234503, -66.482939 
1840442338.072670, -0.949051, -0.311129, 0.000000, 0.000000, 0.241888, -60.176466 
1850447604.002106, -0.958630, -0.280059, 0.000000, 0.000000, 0.249720, -53.903284 
1860452869.931543, -0.967191, -0.248698, 0.000000, 0.000000, 0.257908, -47.659852 
1870458135.860980, -0.974724, -0.217079, 0.000000, 0.000000, 0.266364, -41.442681 
1880463401.790416, -0.981222, -0.185236, 0.000000, 0.000000, 0.275000, -35.248335 
1890468667.719852, -0.986681, -0.153203, 0.000000, 0.000000, 0.283733, -29.073415 
1900473933.649289, -0.991094, -0.121014, 0.000000, 0.000000, 0.292483, -22.914559 
1910479199.578726, -0.994457, -0.088703, 0.000000, 0.000000, 0.301173, -16.768430 
1920484465.508162, -0.996769, -0.056305, 0.000000, 0.000000, 0.309728, -10.631713 
1930489731.437599, -0.998028, -0.023852, -0.000000, 0.000000, 0.318080, -4.501102 
1940494997.367035, -0.998233, 0.008621, -0.000000, 0.000000, 0.326163, 1.626697 
1950500263.296472, -0.997384, 0.041080, -0.000000, 0.000000, 0.333915, 7.754983 
1960505529.225908, -0.995483, 0.073491, -0.000000, 0.000000, 0.341278, 13.887058 
1970510795.155345, -0.992533, 0.105821, -0.000000, 0.000000, 0.348200, 20.026241 
1980516061.084782, -0.988537, 0.138037, -0.000000, 0.000000, 0.354633, 26.175868 
1990521327.014218, -0.983500, 0.170105, -0.000000, 0.000000, 0.360533, 32.339305 
2000526592.943655, -0.977426, 0.201992, -0.000000, 0.000000, 0.365862, 38.519949 
2010531858.873091, -0.970324, 0.233665, -0.000000, 0.000000, 0.370584, 44.721239 
2020537124.802528, -0.962199, 0.265092, -0.000000, 0.000000, 0.374673, 50.946663 
2030542390.731964, -0.953061, 0.296240, -0.000000, 0.000000, 0.378103, 57.199763 
2040547656.661401, -0.942919, 0.327078, -0.000000, 0.000000, 0.380858, 63.484145 
2050552922.590837, -0.931783, 0.357572, -0.000000, 0.000000, 0.382922, 69.803486 
2060558188.520274, -0.919664, 0.387693, -0.000000, 0.000000, 0.384289, 76.161542 
2070563454.449710, -0.906575, 0.417408, -0.000000, 0.000000, 0.384956, 82.562159 
2080568720.379147, -0.892528, 0.446688, -0.000000, 0.000000, 0.384927, 89.009277 
2090573986.308583, -0.877538, 0.475500, -0.000000, 0.000000, 0.384208, 95.506945 
2100579252.238020, -0.861620, 0.503817, -0.000000, 0.000000, 0.382816, 102.059329 
2110584518.167457, -0.844789, 0.531607, -0.000000, 0.000000, 0.380768, 108.670723 
2120589784.096893, -0.827063, 0.558841, -0.000000, 0.000000, 0.378091, 115.345558 
2130595050.026330, -0.808458, 0.585492, -0.000000, 0.000000, 0.374815, 122.088418 
2140600315.955766, -0.788994, 0.611530, -0.000000, 0.000000, 0.370976, 128.904051 
2150605581.885203, -0.768690, 0.636928, -0.000000, 0.000000, 0.366618, 135.797382 
2160610847.814639, -0.747566, 0.661659, -0.000000, 0.000000, 0.361788, 142.773531 
2170616113.744076, -0.725643, 0.685696, 0.000000, 0.000000, 0.356540, 149.837823 
2180621379.673512, -0.702945, 0.709013, 0.000000, 0.000000, 0.350934, 156.995812 
2190626645.602949, -0.679493, 0.731584, 0.000000, 0.000000, 0.345037, 164.253295 
2200631911.532386, -0.655312, 0.753386, 0.000000, 0.000000, 0.338920, 171.616332 
2210637177.461822, -0.630426, 0.774394, 0.000000, 0.000000, 0.332661, 179.091272 
2220642443.391258, -0.604861, 0.794585, 0.000000, 0.000000, 0.326345, 186.684769 
2230647709.320695, -0.578644, 0.813935, 0.000000, 0.000000, 0.320064, 194.403815 
2240652975.250132, -0.551801, 0.832425, 0.000000, 0.000000, 0.313914, 202.255761 
2250658241.179568, -0.524361, 0.850032, 0.000000, 0.000000, 0.308001, 210.248352 
2260663507.109005, -0.496353, 0.866737, 0.000000, 0.000000, 0.302436, 218.389757 
2270668773.038442, -0.467805, 0.882521, 0.000000, 0.000000, 0.297339, 226.688606 
2280674038.967878, -0.438748, 0.897366, 0.000000, 0.000000, 0.292836, 235.154028 
2290679304.897314, -0.409213, 0.911254, 0.000000, 0.000000, 0.289063, 243.795698 
2300684570.826751, -0.379232, 0.924170, 0.000000, 0.000000, 0.286162, 252.623876 
2310689836.756187, -0.348836, 0.936098, 0.000000, 0.000000, 0.284286, 261.649469 
2320695102.685624, -0.318059, 0.947025, 0.000000, 0.000000, 0.283599, 270.884081 
2330700368.615061, -0.286933, 0.956937, 0.000000, 0.000000, 0.284271, 280.340079 
2340705634.544497, -0.255493, 0.965824, 0.000000, 0.000000, 0.286487, 290.030663 
2350710900.473934, -0.223772, 0.973674, 0.000000, 0.000000, 0.290444, 299.969944 
2360716166.403370, -0.191806, 0.980478, 0.000000, 0.000000, 0.296349, 310.173028 
2370721432.332807, -0.159629, 0.986228, 0.000000, 0.000000, 0.304428, 320.656115 
2380726698.262243, -0.127276, 0.990918, 0.000000, 0.000000, 0.314918, 331.436605 
2390731964.191680, -0.094783, 0.994541, 0.000000, 0.000000, 0.328076, 342.533214 
2400737230.121117, -0.062186, 0.997093, 0.000000, 0.000000, 0.344180, 353.966113 
2410742496.050553, -0.029521, 0.998571, 0.000000, 0.000000, 0.363528, 365.757075 
2420747761.979990, 0.003177, 0.998973, 0.000000, 0.000000, 0.386440, 377.929645 
2430753027.909426, 0.035870, 0.998299, 0.000000, 0.000000, 0.413268, 390.509328 
2440758293.838862, 0.068524, 0.996549, 0.000000, 0.000000, 0.444391, 403.523809 
2450763559.768299, 0.101102, 0.993725, 0.000000, 0.000000, 0.480225, 417.003191 
2460768825.697736, 0.133568, 0.989831, 0.000000, 0.000000, 0.521224, 430.980276 
2470774091.627172, 0.165887, 0.984871, 0.000000, 0.000000, 0.567889, 445.490881 
2480779357.556609, 0.198023, 0.978851, 0.000000, 0.000000, 0.620771, 460.574194 
2490784623.486045, 0.229940, 0.971777, 0.000000, 0.000000, 0.680480, 476.273195 
2500789889.415482, 0.261604, 0.963659, 0.000000, 0.000000, 0.747699, 492.635124 
2510795155.344918, 0.292981, 0.954505, 0.000000, 0.000000, 0.823184, 509.712038 
2520800421.274355, 0.324035, 0.944326, 0.000000, 0.000000, 0.907788, 527.561437 
2530805687.203792, 0.354733, 0.933134, 0.000000, 0.000000, 1.002471, 546.247015 
2540810953.133228, 0.385042, 0.920942, 0.000000, 0.000000, 1.108316, 565.839509 
2550816219.062665, 0.414930, 0.907764, 0.000000, 0.000000, 1.226559, 586.417722 
2560821484.992101, 0.444364, 0.893615, 0.000000, -0.000000, 1.358607, 608.069700 
2570826750.921537, 0.473312, 0.878511, 0.000000, -0.000000, 1.506078, 630.894146 
2580832016.850974, 0.501743, 0.862469, 0.000000, -0.000000, 1.670835, 655.002085 
2590837282.780411, 0.529628, 0.845508, 0.000000, -0.000000, 1.855043, 680.518857 
2600842548.709847, 0.556937, 0.827647, 0.000000, -0.000000, 2.061220, 707.586509 
2610847814.639284, 0.583641, 0.808905, 0.000000, -0.000000, 2.292323, 736.366681 
2620853080.568720, 0.609711, 0.789304, 0.000000, -0.000000, 2.551836, 767.044118 
2630858346.498157, 0.635122, 0.768865, 0.000000, -0.000000, 2.843895, 799.830951 
2640863612.427593, 0.659845, 0.747611, 0.000000, -0.000000, 3.173442, 834.971983 
2650868878.357030, 0.683856, 0.725565, 0.000000, -0.000000, 3.546422, 872.751239 
2660874144.286467, 0.707129, 0.702752, 0.000000, -0.000000, 3.970039, 913.500152 
2670879410.215903, 0.729641, 0.679196, 0.000000, -0.000000, 4.453097, 957.607900 
2680884676.145340, 0.751368, 0.654923, 0.000000, -0.000000, 5.006449, 1005.534563 
2690889942.074776, 0.772288, 0.629960, 0.000000, -0.000000, 5.643594, 1057.828049 
2700895208.004213, 0.792380, 0.604332, 0.000000, -0.000000, 6.381496, 1115.146116 
2710900473.933649, 0.811623, 0.578068, 0.000000, -0.000000, 7.241714, 1178.285360 
2720905739.863086, 0.829998, 0.551195, 0.000000, -0.000000, 8.251982, 1248.219901 
2730911005.792522, 0.847485, 0.523742, 0.000000, -0.000000, 9.448457, 1326.153766 
2740916271.721959, 0.864068, 0.495738, 0.000000, -0.000000, 10.878991, 1413.592976 
2750921537.651396, 0.879729, 0.467212, 0.000000, -0.000000, 12.607986, 1512.446571 
2760926803.580832, 0.894452, 0.438196, 0.000000, -0.000000, 14.723761, 1625.171099 
2770932069.510269, 0.908223, 0.408718, 0.000000, -0.000000, 17.350060, 1754.982047 
2780937335.439705, 0.921027, 0.378810, 0.000000, -0.000000, 20.664578, 1906.171449 
2790942601.369142, 0.932851, 0.348503, 0.000000, -0.000000, 24.929839, 2084.599521 
2800947867.298578, 0.943683, 0.317828, 0.000000, -0.000000, 30.546854, 2298.482756 
2810953133.228015, 0.953512, 0.286819, 0.000000, -0.000000, 38.152976, 2559.710257 
2820958399.157452, 0.962328, 0.255506, 0.000000, -0.000000, 48.811028, 2886.153213 
2830963665.086888, 0.970121, 0.223922, 0.000000, -0.000000, 64.401721, 3305.967020 
2840968931.016325, 0.976884, 0.192101, 0.000000, -0.000000, 88.513538, 3866.227514 
2850974196.945761, 0.982608, 0.160074, 0.000000, -0.000000, 128.706580, 4652.018340 
2860979462.875197, 0.987288, 0.127877, 0.000000, -0.000000, 203.240537, 5834.429637 
2870984728.804634, 0.990919, 0.095541, 0.000000, -0.000000, 366.109352, 7815.655943 
2880989994.734071, 0.993496, 0.063101, 0.000000, -0.000000, 841.002532, 11815.109223 
2890995260.663507, 0.995017, 0.030590, 0.000000, -0.000000, 3532.089920, 23994.384969 
2901000526.592944, 0.995478, -0.001958, 0.000000, -0.000000, 139939.643366, -60751.287797 
2911005792.522380, 0.994879, -0.034508, 0.000000, -0.000000, 2793.701412, -21363.785129 
2921011058.451817, 0.993220, -0.067027, 0.000000, -0.000000, 748.901329, -11127.282004 
2931016324.381253, 0.990501, -0.099480, 0.000000, -0.000000, 339.953744, -7505.533908 
2941021590.310690, 0.986725, -0.131834, 0.000000, 0.000000, 192.992776, -5657.858957 
2951026856.240127, 0.981895, -0.164053, 0.000000, 0.000000, 124.040068, -4537.505068 
2961032122.169563, 0.976014, -0.196105, 0.000000, 0.000000, 86.273313, -3785.491942 
2971037388.099000, 0.969089, -0.227955, 0.000000, 0.000000, 63.376602, -3245.624233 
2981042654.028436, 0.961126, -0.259569, 0.000000, 0.000000, 48.460489, -2839.059236 
2991047919.957872, 0.952131, -0.290913, 0.000000, 0.000000, 38.208523, -2521.708045 
3001053185.887309, 0.942114, -0.321954, 0.000000, 0.000000, 30.863968, -2266.990291 
3011058451.816746, 0.931084, -0.352658, 0.000000, 0.000000, 25.425689, -2057.929074 
3021063717.746182, 0.919052, -0.382992, 0.000000, 0.000000, 21.289206, -1883.173602 
3031068983.675619, 0.906030, -0.412924, 0.000000, -0.000000, 18.072005, -1734.847118 
3041074249.605055, 0.892031, -0.442421, 0.000000, -0.000000, 15.522448, -1607.312383 
3051079515.534492, 0.877068, -0.471450, 0.000000, -0.000000, 13.469482, -1496.428612 
3061084781.463928, 0.861156, -0.499981, 0.000000, -0.000000, 11.793536, -1399.085830 
3071090047.393365, 0.844313, -0.527981, 0.000000, -0.000000, 10.408980, -1312.902910 
3081095313.322802, 0.826555, -0.555420, 0.000000, -0.000000, 9.253184, -1236.025863 
3091100579.252238, 0.807900, -0.582267, 0.000000, -0.000000, 8.279477, -1166.989613 
3101105845.181675, 0.788369, -0.608494, 0.000000, -0.000000, 7.452501, -1104.621088 
3111111111.111111, 0.767980, -0.634070, 0.000000, -0.000000, 6.745071, -1047.969913 
3121116377.040547, 0.746756, -0.658967, 0.000000, -0.000000, 6.136004, -996.257950 
3131121642.969984, 0.724719, -0.683159, 0.000000, -0.000000, 5.608597, -948.841956 
3141126908.899421, 0.701893, -0.706616, 0.000000, -0.000000, 5.149530, -905.185561 
3151132174.828857, 0.678301, -0.729315, 0.000000, -0.000000, 4.748077, -864.837945 
3161137440.758294, 0.653969, -0.751228, 0.000000, -0.000000, 4.395520, -827.417426 
3171142706.687730, 0.628923, -0.772331, 0.000000, -0.000000, 4.084714, -792.598687 
3181147972.617167, 0.603190, -0.792601, 0.000000, -0.000000, 3.809756, -760.102734 
3191153238.546604, 0.576798, -0.812015, 0.000000, -0.000000, 3.565735, -729.688923 
3201158504.476040, 0.549775, -0.830550, 0.000000, -0.000000, 3.348536, -701.148584 
3211163770.405477, 0.522151, -0.848187, 0.000000, -0.000000, 3.154692, -674.299872 
3221169036.334913, 0.493956, -0.864905, 0.000000, -0.000000, 2.981262, -648.983586 
3231174302.264350, 0.465220, -0.880686, 0.000000, -0.000000, 2.825741, -625.059737 
3241179568.193786, 0.435975, -0.895511, 0.000000, -0.000000, 2.685982, -602.404735 
3251184834.123223, 0.406253, -0.909364, 0.000000, -0.000000, 2.560135, -580.909045 
3261190100.052660, 0.376087, -0.922229, 0.000000, -0.000000, 2.446604, -560.475236 
