# stacked metamaterial geometry 
# f [Hz], L [0.001 m]
# Unitcell size lx, ly, lz = 10, 10, 99.9308 at center position x = 0 y = 0 z = 0
# Definition of material properties: 
#name =copper,type =const,Kappa =56000000,
#name =FR4,Epsilon =4.4,Kappa =0.048957,type =const,
#name =copperSquares,type =const,Kappa =56000000,
#name =air,type =const,Epsilon =1,
## layer number 1:
# rect patch made of copper. lx, ly, lz = 10, 10, 0.5 at center position x = 0 y = 0 z = -0.25
# background material (if any) is air
# layer number 2:
# rect patch made of FR4. lx, ly, lz = 10, 10, 0.4 at center position x = 0 y = 0 z = -0.7
# background material (if any) is air
# layer number 3:
# square patch made of copperSquares lx, ly, lz = 9, 9, 0.05 at center position x = 0 y = 0 z = -0.925# with circular hole of radius 3.25
# Re/Im parts of the scattering parameters S11 (refl.) and S21 (transm.) and the real and imaginary part of the impedance as a function of frequency 
# first column is frequency, second and third columns are Re/Im of S11 and S21, respectively.
1000000000.000000, 0.991191, -0.090858, -0.000000, 0.000000, 419.763612, -8215.539685 
1010005265.929437, 0.989285, -0.121745, -0.000000, 0.000000, 163.772985, -6141.252724 
1020010531.858873, 0.986683, -0.153224, -0.000000, 0.000000, 47.446982, -4880.519512 
1030015797.788310, 0.983095, -0.185330, 0.000000, 0.000000, -8.954259, -4031.959467 
1040021063.717746, 0.978228, -0.217986, 0.000000, 0.000000, -34.919085, -3422.318468 
1050026329.647183, 0.971830, -0.251006, 0.000000, 0.000000, -44.035304, -2964.418025 
1060031595.576619, 0.963726, -0.284119, 0.000000, 0.000000, -43.585444, -2609.381819 
1070036861.506056, 0.953849, -0.317004, 0.000000, -0.000000, -37.882670, -2327.482349 
1080042127.435492, 0.942246, -0.349336, 0.000000, -0.000000, -29.638590, -2099.450774 
1090047393.364929, 0.929074, -0.380829, 0.000000, -0.000000, -20.607573, -1912.147529 
1100052659.294365, 0.914571, -0.411274, 0.000000, -0.000000, -11.927732, -1756.237896 
1110057925.223802, 0.899025, -0.440563, 0.000000, -0.000000, -4.317871, -1624.864458 
1120063191.153239, 0.882727, -0.468697, -0.000000, -0.000000, 1.802276, -1512.849389 
1130068457.082675, 0.865933, -0.495777, -0.000000, -0.000000, 6.236102, -1416.195847 
1140073723.012112, 0.848831, -0.521980, -0.000000, -0.000000, 8.960329, -1331.767718 
1150078988.941548, 0.831518, -0.547529, -0.000000, -0.000000, 10.089454, -1257.080644 
1160084254.870985, 0.813996, -0.572657, -0.000000, 0.000000, 9.846011, -1190.164291 
1170089520.800421, 0.796171, -0.597566, -0.000000, 0.000000, 8.530913, -1129.469719 
1180094786.729858, 0.777876, -0.622402, -0.000000, 0.000000, 6.491010, -1073.803375 
1190100052.659294, 0.758897, -0.647228, -0.000000, 0.000000, 4.084044, -1022.274294 
1200105318.588731, 0.739006, -0.672014, 0.000000, 0.000000, 1.643823, -974.245486 
1210110584.518167, 0.717996, -0.696639, 0.000000, 0.000000, -0.549983, -929.284899 
1220115850.447604, 0.695718, -0.720905, 0.000000, 0.000000, -2.293174, -887.115331 
1230121116.377041, 0.672098, -0.744564, 0.000000, 0.000000, -3.466889, -847.565599 
1240126382.306477, 0.647159, -0.767351, 0.000000, 0.000000, -4.035860, -810.526542 
1250131648.235914, 0.621012, -0.789022, 0.000000, -0.000000, -4.037178, -775.914997 
1260136914.165350, 0.593846, -0.809384, 0.000000, -0.000000, -3.562993, -743.647495 
1270142180.094787, 0.565900, -0.828323, 0.000000, -0.000000, -2.740760, -713.623701 
1280147446.024223, 0.537430, -0.845812, 0.000000, -0.000000, -1.713985, -685.718350 
1290152711.953660, 0.508673, -0.861908, -0.000000, -0.000000, -0.625327, -659.779789 
1300157977.883096, 0.479821, -0.876742, -0.000000, -0.000000, 0.396985, -635.633204 
1310163243.812533, 0.450996, -0.890490, -0.000000, -0.000000, 1.249216, -613.086933 
1320168509.741970, 0.422244, -0.903348, -0.000000, -0.000000, 1.858722, -591.940651 
1330173775.671406, 0.393531, -0.915495, -0.000000, 0.000000, 2.187234, -571.994576 
1340179041.600842, 0.364758, -0.927077, -0.000000, 0.000000, 2.230929, -553.058918 
1350184307.530279, 0.335782, -0.938176, -0.000000, 0.000000, 2.017399, -534.962804 
1360189573.459716, 0.306438, -0.948805, -0.000000, 0.000000, 1.599772, -517.561817 
1370194839.389152, 0.276570, -0.958902, 0.000000, 0.000000, 1.048524, -500.743250 
1380200105.318589, 0.246055, -0.968344, 0.000000, 0.000000, 0.441898, -484.428373 
1390205371.248025, 0.214828, -0.976959, 0.000000, 0.000000, -0.143889, -468.571334 
1400210637.177462, 0.182889, -0.984554, 0.000000, 0.000000, -0.643356, -453.154904 
1410215903.106898, 0.150314, -0.990942, 0.000000, 0.000000, -1.008297, -438.183736 
1420221169.036335, 0.117241, -0.995967, 0.000000, -0.000000, -1.211461, -423.676219 
1430226434.965771, 0.083853, -0.999527, 0.000000, -0.000000, -1.247234, -409.656151 
1440231700.895208, 0.050357, -1.001587, 0.000000, -0.000000, -1.129658, -396.145253 
1450236966.824645, 0.016957, -1.002178, 0.000000, -0.000000, -0.888462, -383.157308 
1460242232.754081, -0.016173, -1.001392, -0.000000, -0.000000, -0.563903, -370.694289 
1470247498.683518, -0.048906, -0.999364, -0.000000, -0.000000, -0.201193, -358.744525 
1480252764.612954, -0.081174, -0.996254, -0.000000, -0.000000, 0.154880, -347.282721 
1490258030.542391, -0.112967, -0.992218, -0.000000, -0.000000, 0.464643, -336.271538 
1500263296.471827, -0.144332, -0.987391, -0.000000, 0.000000, 0.697252, -325.664375 
1510268562.401264, -0.175353, -0.981867, -0.000000, 0.000000, 0.833192, -315.408971 
1520273828.330700, -0.206140, -0.975693, -0.000000, 0.000000, 0.865452, -305.451463 
1530279094.260137, -0.236803, -0.968859, -0.000000, 0.000000, 0.799317, -295.740478 
1540284360.189574, -0.267432, -0.961305, -0.000000, 0.000000, 0.650850, -286.230855 
1550289626.119010, -0.298087, -0.952936, 0.000000, 0.000000, 0.444251, -276.886573 
1560294892.048447, -0.328776, -0.943630, 0.000000, 0.000000, 0.208425, -267.682578 
1570300157.977883, -0.359460, -0.933264, 0.000000, 0.000000, -0.026785, -258.605278 
1580305423.907320, -0.390050, -0.921732, 0.000000, 0.000000, -0.234210, -249.651724 
1590310689.836756, -0.420419, -0.908961, 0.000000, -0.000000, -0.392333, -240.827639 
1600315955.766193, -0.450418, -0.894919, 0.000000, -0.000000, -0.487315, -232.144651 
1610321221.695629, -0.479895, -0.879627, 0.000000, -0.000000, -0.513873, -223.617167 
1620326487.625066, -0.508709, -0.863148, 0.000000, -0.000000, -0.475052, -215.259316 
1630331753.554502, -0.536751, -0.845582, -0.000000, -0.000000, -0.381045, -207.082325 
1640337019.483939, -0.563950, -0.827052, -0.000000, -0.000000, -0.247340, -199.092582 
1650342285.413375, -0.590276, -0.807685, -0.000000, -0.000000, -0.092483, -191.290491 
1660347551.342812, -0.615740, -0.787600, -0.000000, -0.000000, 0.064251, -183.670145 
1670352817.272249, -0.640385, -0.766891, -0.000000, 0.000000, 0.205027, -176.219738 
1680358083.201685, -0.664276, -0.745623, -0.000000, 0.000000, 0.315280, -168.922600 
1690363349.131122, -0.687483, -0.723824, -0.000000, 0.000000, 0.385045, -161.758687 
1700368615.060558, -0.710070, -0.701487, -0.000000, 0.000000, 0.409702, -154.706362 
1710373880.989995, -0.732085, -0.678578, -0.000000, 0.000000, 0.390094, -147.744255 
1720379146.919431, -0.753545, -0.655044, 0.000000, 0.000000, 0.332025, -140.853012 
1730384412.848868, -0.774438, -0.630822, 0.000000, 0.000000, 0.245228, -134.016727 
1740389678.778304, -0.794722, -0.605860, 0.000000, 0.000000, 0.141932, -127.223910 
1750394944.707741, -0.814325, -0.580117, 0.000000, 0.000000, 0.035240, -120.467884 
1760400210.637177, -0.833161, -0.553580, 0.000000, -0.000000, -0.062488, -113.746592 
1770405476.566614, -0.851135, -0.526266, 0.000000, -0.000000, -0.141013, -107.061881 
1780410742.496051, -0.868157, -0.498218, 0.000000, -0.000000, -0.193221, -100.418393 
1790416008.425487, -0.884151, -0.469505, 0.000000, -0.000000, -0.215639, -93.822252 
1800421274.354924, -0.899064, -0.440213, -0.000000, -0.000000, -0.208471, -87.279724 
1810426540.284360, -0.912865, -0.410437, -0.000000, -0.000000, -0.175187, -80.796031 
1820431806.213797, -0.925550, -0.380267, -0.000000, -0.000000, -0.121799, -74.374434 
1830437072.143233, -0.937136, -0.349787, -0.000000, -0.000000, -0.055920, -68.015648 
1840442338.072670, -0.947656, -0.319062, -0.000000, -0.000000, 0.014233, -61.717622 
1850447604.002106, -0.957150, -0.288140, -0.000000, 0.000000, 0.080799, -55.475650 
1860452869.931543, -0.965658, -0.257048, -0.000000, 0.000000, 0.137081, -49.282768 
1870458135.860980, -0.973216, -0.225799, -0.000000, 0.000000, 0.178160, -43.130349 
1880463401.790416, -0.979846, -0.194390, -0.000000, 0.000000, 0.201235, -37.008839 
1890468667.719852, -0.985558, -0.162815, 0.000000, 0.000000, 0.205719, -30.908516 
1900473933.649289, -0.990345, -0.131063, 0.000000, 0.000000, 0.193061, -24.820203 
1910479199.578726, -0.994189, -0.099133, 0.000000, 0.000000, 0.166367, -18.735850 
1920484465.508162, -0.997061, -0.067029, 0.000000, 0.000000, 0.129863, -12.648930 
1930489731.437599, -0.998927, -0.034771, 0.000000, -0.000000, 0.088288, -6.554607 
1940494997.367035, -0.999751, -0.002387, 0.000000, -0.000000, 0.046307, -0.449688 
1950500263.296472, -0.999505, 0.030080, 0.000000, -0.000000, 0.008003, 5.667623 
1960505529.225908, -0.998165, 0.062581, 0.000000, -0.000000, -0.023469, 11.798093 
1970510795.155345, -0.995717, 0.095058, -0.000000, -0.000000, -0.046071, 17.941903 
1980516061.084782, -0.992158, 0.127456, -0.000000, -0.000000, -0.058892, 24.099078 
1990521327.014218, -0.987494, 0.159719, -0.000000, -0.000000, -0.062022, 30.269855 
2000526592.943655, -0.981737, 0.191795, -0.000000, -0.000000, -0.056331, 36.454940 
2010531858.873091, -0.974905, 0.223636, -0.000000, -0.000000, -0.043208, 42.655661 
2020537124.802528, -0.967019, 0.255202, -0.000000, 0.000000, -0.024308, 48.874000 
2030542390.731964, -0.958101, 0.286455, -0.000000, 0.000000, -0.001345, 55.112539 
2040547656.661401, -0.948173, 0.317363, -0.000000, 0.000000, 0.024046, 61.374363 
2050552922.590837, -0.937257, 0.347896, -0.000000, 0.000000, 0.050376, 67.662934 
2060558188.520274, -0.925373, 0.378027, 0.000000, 0.000000, 0.076297, 73.981993 
2070563454.449710, -0.912543, 0.407730, 0.000000, 0.000000, 0.100557, 80.335504 
2080568720.379147, -0.898787, 0.436982, 0.000000, 0.000000, 0.121936, 86.727649 
2090573986.308583, -0.884124, 0.465760, 0.000000, 0.000000, 0.139209, 93.162888 
2100579252.238020, -0.868574, 0.494044, 0.000000, -0.000000, 0.151138, 99.646042 
2110584518.167457, -0.852155, 0.521818, 0.000000, -0.000000, 0.156539, 106.182403 
2120589784.096893, -0.834880, 0.549064, 0.000000, -0.000000, 0.154403, 112.777806 
2130595050.026330, -0.816764, 0.575767, 0.000000, -0.000000, 0.144075, 119.438658 
2140600315.955766, -0.797813, 0.601911, 0.000000, -0.000000, 0.125448, 126.171877 
2150605581.885203, -0.778034, 0.627477, -0.000000, -0.000000, 0.099149, 132.984751 
2160610847.814639, -0.757429, 0.652441, -0.000000, -0.000000, 0.066667, 139.884703 
2170616113.744076, -0.736000, 0.676775, -0.000000, -0.000000, 0.030396, 146.878996 
2180621379.673512, -0.713749, 0.700443, -0.000000, -0.000000, -0.006443, 153.974416 
2190626645.602949, -0.690684, 0.723405, -0.000000, 0.000000, -0.040010, 161.176958 
2200631911.532386, -0.666820, 0.745612, -0.000000, 0.000000, -0.066180, 168.491590 
2210637177.461822, -0.642179, 0.767015, -0.000000, 0.000000, -0.080985, 175.922126 
2220642443.391258, -0.616796, 0.787565, -0.000000, 0.000000, -0.081127, 183.471261 
2230647709.320695, -0.590716, 0.807217, 0.000000, 0.000000, -0.064493, 191.140800 
2240652975.250132, -0.563994, 0.825933, 0.000000, 0.000000, -0.030619, 198.932078 
2250658241.179568, -0.536689, 0.843688, 0.000000, 0.000000, 0.018995, 206.846564 
2260663507.109005, -0.508864, 0.860471, 0.000000, 0.000000, 0.080772, 214.886606 
2270668773.038442, -0.480580, 0.876282, 0.000000, -0.000000, 0.149213, 223.056211 
2280674038.967878, -0.451888, 0.891136, 0.000000, -0.000000, 0.217332, 231.361782 
2290679304.897314, -0.422828, 0.905054, 0.000000, -0.000000, 0.277351, 239.812699 
2300684570.826751, -0.393426, 0.918063, 0.000000, -0.000000, 0.321591, 248.421633 
2310689836.756187, -0.363693, 0.930185, 0.000000, -0.000000, 0.343447, 257.204541 
2320695102.685624, -0.333627, 0.941435, -0.000000, -0.000000, 0.338335, 266.180311 
2330700368.615061, -0.303219, 0.951816, -0.000000, -0.000000, 0.304465, 275.370087 
2340705634.544497, -0.272453, 0.961315, -0.000000, -0.000000, 0.243352, 284.796337 
2350710900.473934, -0.241321, 0.969902, -0.000000, -0.000000, 0.159969, 294.481774 
2360716166.403370, -0.209820, 0.977535, -0.000000, 0.000000, 0.062504, 304.448250 
2370721432.332807, -0.177966, 0.984158, -0.000000, 0.000000, -0.038278, 314.715756 
2380726698.262243, -0.145788, 0.989716, -0.000000, 0.000000, -0.130033, 325.301649 
2390731964.191680, -0.113341, 0.994152, -0.000000, 0.000000, -0.200131, 336.220238 
2400737230.121117, -0.080693, 0.997422, 0.000000, 0.000000, -0.237125, 347.482808 
2410742496.050553, -0.047927, 0.999498, 0.000000, 0.000000, -0.232262, 359.098172 
2420747761.979990, -0.015134, 1.000373, 0.000000, 0.000000, -0.180864, 371.073761 
2430753027.909426, 0.017597, 1.000063, 0.000000, 0.000000, -0.083378, 383.417225 
2440758293.838862, 0.050186, 0.998603, 0.000000, 0.000000, 0.054064, 396.138444 
2450763559.768299, 0.082569, 0.996049, 0.000000, -0.000000, 0.219748, 409.251756 
2460768825.697736, 0.114704, 0.992461, 0.000000, -0.000000, 0.397207, 422.778188 
2470774091.627172, 0.146571, 0.987903, 0.000000, -0.000000, 0.566752, 436.747394 
2480779357.556609, 0.178175, 0.982432, 0.000000, -0.000000, 0.707597, 451.199061 
2490784623.486045, 0.209534, 0.976086, -0.000000, -0.000000, 0.800317, 466.183596 
2500789889.415482, 0.240680, 0.968884, -0.000000, -0.000000, 0.829391, 481.761979 
2510795155.344918, 0.271643, 0.960822, -0.000000, -0.000000, 0.785479, 498.004826 
2520800421.274355, 0.302446, 0.951872, -0.000000, -0.000000, 0.667178, 514.990773 
2530805687.203792, 0.333096, 0.941989, -0.000000, 0.000000, 0.482020, 532.804406 
2540810953.133228, 0.363576, 0.931118, -0.000000, 0.000000, 0.246573, 551.534014 
2550816219.062665, 0.393845, 0.919202, -0.000000, 0.000000, -0.014433, 571.269443 
2560821484.992101, 0.423838, 0.906194, -0.000000, 0.000000, -0.269936, 592.100395 
2570826750.921537, 0.453467, 0.892063, 0.000000, 0.000000, -0.485272, 614.115452 
2580832016.850974, 0.482635, 0.876804, 0.000000, 0.000000, -0.625642, 637.402179 
2590837282.780411, 0.511238, 0.860437, 0.000000, 0.000000, -0.660107, 662.048586 
2600842548.709847, 0.539180, 0.843013, 0.000000, 0.000000, -0.565759, 688.146253 
2610847814.639284, 0.566385, 0.824604, 0.000000, 0.000000, -0.331653, 715.795308 
2620853080.568720, 0.592797, 0.805301, 0.000000, -0.000000, 0.038040, 745.111330 
2630858346.498157, 0.618391, 0.785198, 0.000000, -0.000000, 0.522171, 776.234107 
2640863612.427593, 0.643172, 0.764385, 0.000000, -0.000000, 1.082543, 809.337928 
2650868878.357030, 0.667167, 0.742938, 0.000000, -0.000000, 1.665898, 844.643023 
2660874144.286467, 0.690423, 0.720908, -0.000000, -0.000000, 2.208027, 882.427664 
2670879410.215903, 0.712991, 0.698320, -0.000000, -0.000000, 2.639719, 923.040582 
2680884676.145340, 0.734919, 0.675168, -0.000000, -0.000000, 2.894035, 966.913642 
2690889942.074776, 0.756243, 0.651425, -0.000000, -0.000000, 2.914239, 1014.575132 
2700895208.004213, 0.776973, 0.627044, -0.000000, 0.000000, 2.661664, 1066.664597 
2710900473.933649, 0.797092, 0.601973, -0.000000, 0.000000, 2.122940, 1123.950731 
2720905739.863086, 0.816554, 0.576162, -0.000000, 0.000000, 1.316125, 1187.354566 
2730911005.792522, 0.835288, 0.549578, -0.000000, 0.000000, 0.295509, 1257.981070 
2740916271.721959, 0.853203, 0.522211, -0.000000, 0.000000, -0.845043, 1337.163535 
2750921537.651396, 0.870202, 0.494079, 0.000000, 0.000000, -1.970272, 1426.527105 
2760926803.580832, 0.886186, 0.465233, 0.000000, 0.000000, -2.903292, 1528.081067 
2770932069.510269, 0.901075, 0.435752, 0.000000, 0.000000, -3.426942, 1644.355004 
2780937335.439705, 0.914810, 0.405738, 0.000000, 0.000000, -3.286568, 1778.603202 
2790942601.369142, 0.927361, 0.375302, 0.000000, -0.000000, -2.193572, 1935.118012 
2800947867.298578, 0.938735, 0.344559, 0.000000, -0.000000, 0.171922, 2119.722285 
2810953133.228015, 0.948965, 0.313608, 0.000000, -0.000000, 4.162851, 2340.566719 
2820958399.157452, 0.958109, 0.282529, 0.000000, -0.000000, 10.178449, 2609.469439 
2830963665.086888, 0.966239, 0.251373, -0.000000, -0.000000, 18.702768, 2944.273016 
2840968931.016325, 0.973429, 0.220157, -0.000000, -0.000000, 30.397376, 3373.241478 
2850974196.945761, 0.979741, 0.188871, -0.000000, -0.000000, 46.315674, 3943.900075 
2860979462.875197, 0.985218, 0.157482, -0.000000, -0.000000, 68.421105, 4742.625778 
2870984728.804634, 0.989878, 0.125943, -0.000000, 0.000000, 100.998292, 5944.162587 
2880989994.734071, 0.993705, 0.094203, -0.000000, 0.000000, 155.372112, 7962.711624 
2890995260.663507, 0.996656, 0.062223, -0.000000, 0.000000, 272.265866, 12074.239806 
2901000526.592944, 0.998663, 0.029982, -0.000000, 0.000000, 742.133531, 25080.905255 
2911005792.522380, 0.999644, -0.002513, -0.000000, 0.000000, 41245.765836, -293989.755687 
2921011058.451817, 0.999516, -0.035220, 0.000000, 0.000000, -82.746969, -21388.646165 
2931016324.381253, 0.998201, -0.068072, 0.000000, 0.000000, -84.463817, -11060.826305 
2941021590.310690, 0.995644, -0.100972, 0.000000, 0.000000, -55.420995, -7448.237593 
2951026856.240127, 0.991817, -0.133806, 0.000000, 0.000000, -33.624694, -5610.019959 
2961032122.169563, 0.986723, -0.166455, 0.000000, -0.000000, -17.962465, -4497.882401 
2971037388.099000, 0.980401, -0.198808, 0.000000, -0.000000, -6.701817, -3753.400415 
2981042654.028436, 0.972914, -0.230770, 0.000000, -0.000000, 1.274456, -3220.611811 
2991047919.957872, 0.964349, -0.262273, 0.000000, -0.000000, 6.689353, -2820.690515 
3001053185.887309, 0.954797, -0.293280, -0.000000, -0.000000, 10.054454, -2509.469072 
3011058451.816746, 0.944347, -0.323785, -0.000000, -0.000000, 11.771124, -2260.258181 
3021063717.746182, 0.933072, -0.353813, -0.000000, -0.000000, 12.182991, -2055.976519 
3031068983.675619, 0.921023, -0.383404, -0.000000, -0.000000, 11.601193, -1885.193587 
3041074249.605055, 0.908219, -0.412610, -0.000000, -0.000000, 10.313901, -1739.989554 
3051079515.534492, 0.894651, -0.441479, -0.000000, 0.000000, 8.586595, -1614.726695 
3061084781.463928, 0.880284, -0.470045, -0.000000, 0.000000, 6.657226, -1505.307169 
3071090047.393365, 0.865061, -0.498321, -0.000000, 0.000000, 4.729362, -1408.703543 
3081095313.322802, 0.848917, -0.526288, -0.000000, 0.000000, 2.965713, -1322.649041 
3091100579.252238, 0.831790, -0.553900, 0.000000, 0.000000, 1.483799, -1245.425243 
3101105845.181675, 0.813631, -0.581080, 0.000000, 0.000000, 0.354816, -1175.711860 
3111111111.111111, 0.794412, -0.607733, 0.000000, 0.000000, -0.394028, -1112.478001 
3121116377.040547, 0.774138, -0.633751, 0.000000, 0.000000, -0.774076, -1054.902509 
3131121642.969984, 0.752842, -0.659027, 0.000000, -0.000000, -0.827505, -1002.315561 
3141126908.899421, 0.730590, -0.683464, 0.000000, -0.000000, -0.618358, -954.156245 
3151132174.828857, 0.707469, -0.706990, 0.000000, -0.000000, -0.223307, -909.942317 
3161137440.758294, 0.683579, -0.729557, 0.000000, -0.000000, 0.277050, -869.249230 
3171142706.687730, 0.659026, -0.751152, -0.000000, -0.000000, 0.805766, -831.696172 
3181147972.617167, 0.633904, -0.771788, -0.000000, -0.000000, 1.295674, -796.937296 
3191153238.546604, 0.608290, -0.791502, -0.000000, -0.000000, 1.693864, -764.656747 
3201158504.476040, 0.582237, -0.810349, -0.000000, -0.000000, 1.964457, -734.566361 
3211163770.405477, 0.555767, -0.828385, -0.000000, -0.000000, 2.089671, -706.405113 
3221169036.334913, 0.528876, -0.845661, -0.000000, 0.000000, 2.069263, -679.939567 
3231174302.264350, 0.501538, -0.862212, -0.000000, 0.000000, 1.918492, -654.964654 
