# stacked metamaterial geometry 
# f [Hz], L [0.001 m]
# Unitcell size lx, ly, lz = 10, 10, 99.9308 at center position x = 0 y = 0 z = 0
# Definition of material properties: 
#name =copper,type =const,Kappa =56000000,
#name =FR4,Epsilon =4.4,Kappa =0.048957,type =const,
#name =copperSquares,type =const,Kappa =56000000,
#name =air,type =const,Epsilon =1,
## layer number 1:
# rect patch made of copper. lx, ly, lz = 10, 10, 0.5 at center position x = 0 y = 0 z = -0.25
# background material (if any) is air
# layer number 2:
# rect patch made of FR4. lx, ly, lz = 10, 10, 0.4 at center position x = 0 y = 0 z = -0.7
# background material (if any) is air
# layer number 3:
# square patch made of copperSquares lx, ly, lz = 9, 9, 0.05 at center position x = 0 y = 0 z = -0.925# with circular hole of radius 2.55
# Re/Im parts of the scattering parameters S11 (refl.) and S21 (transm.) and the real and imaginary part of the impedance as a function of frequency 
# first column is frequency, second and third columns are Re/Im of S11 and S21, respectively.
1000000000.000000, 0.997896, -0.098730, -0.000000, -0.000000, -214.204585, -7628.072989 
1010005265.929437, 0.992575, -0.131384, -0.000000, -0.000000, -53.686412, -5716.552755 
1020010531.858873, 0.986189, -0.163265, -0.000000, -0.000000, 10.897364, -4582.148476 
1030015797.788310, 0.978963, -0.194384, -0.000000, -0.000000, 37.911061, -3831.274002 
1040021063.717746, 0.971094, -0.224820, -0.000000, -0.000000, 47.170830, -3296.889213 
1050026329.647183, 0.962723, -0.254711, -0.000000, -0.000000, 47.110637, -2896.063774 
1060031595.576619, 0.953925, -0.284228, -0.000000, 0.000000, 41.994543, -2583.025430 
1070036861.506056, 0.944701, -0.313546, -0.000000, 0.000000, 34.299204, -2330.540482 
1080042127.435492, 0.934983, -0.342824, -0.000000, 0.000000, 25.616550, -2121.501383 
1090047393.364929, 0.924644, -0.372179, -0.000000, 0.000000, 17.025267, -1944.728536 
1100052659.294365, 0.913516, -0.401673, -0.000000, 0.000000, 9.252988, -1792.698182 
1110057925.223802, 0.901417, -0.431296, -0.000000, 0.000000, 2.754963, -1660.225025 
1120063191.153239, 0.888168, -0.460971, -0.000000, 0.000000, -2.237124, -1543.653331 
1130068457.082675, 0.873624, -0.490557, -0.000000, 0.000000, -5.673659, -1440.338428 
1140073723.012112, 0.857693, -0.519865, -0.000000, 0.000000, -7.645458, -1348.305749 
1150078988.941548, 0.840344, -0.548682, -0.000000, 0.000000, -8.341893, -1266.024887 
1160084254.870985, 0.821621, -0.576793, -0.000000, 0.000000, -8.011475, -1192.261001 
1170089520.800421, 0.801627, -0.604009, -0.000000, -0.000000, -6.927724, -1125.978858 
1180094786.729858, 0.780518, -0.630182, -0.000000, -0.000000, -5.362029, -1066.282383 
1190100052.659294, 0.758482, -0.655224, -0.000000, -0.000000, -3.563873, -1012.377586 
1200105318.588731, 0.735713, -0.679110, -0.000000, -0.000000, -1.747723, -963.550470 
1210110584.518167, 0.712390, -0.701877, -0.000000, -0.000000, -0.085411, -919.154293 
1220115850.447604, 0.688660, -0.723609, -0.000000, -0.000000, 1.297282, -878.602602 
1230121116.377041, 0.664622, -0.744426, -0.000000, 0.000000, 2.320880, -841.365851 
1240126382.306477, 0.640321, -0.764461, -0.000000, 0.000000, 2.950011, -806.970232 
1250131648.235914, 0.615746, -0.783840, -0.000000, 0.000000, 3.189170, -774.997772 
1260136914.165350, 0.590841, -0.802670, -0.000000, 0.000000, 3.076686, -745.086909 
1270142180.094787, 0.565512, -0.821014, -0.000000, 0.000000, 2.677104, -716.932791 
1280147446.024223, 0.539648, -0.838894, -0.000000, 0.000000, 2.072348, -690.286535 
1290152711.953660, 0.513133, -0.856278, -0.000000, 0.000000, 1.352244, -664.952842 
1300157977.883096, 0.485871, -0.873086, -0.000000, 0.000000, 0.605190, -640.785570 
1310163243.812533, 0.457796, -0.889203, -0.000000, 0.000000, -0.090141, -617.681278 
1320168509.741970, 0.428884, -0.904488, -0.000000, 0.000000, -0.671244, -595.571097 
1330173775.671406, 0.399160, -0.918791, -0.000000, 0.000000, -1.095820, -574.411644 
1340179041.600842, 0.368700, -0.931975, -0.000000, 0.000000, -1.343188, -554.175831 
1350184307.530279, 0.337615, -0.943930, -0.000000, 0.000000, -1.413261, -534.844445 
1360189573.459716, 0.306047, -0.954583, -0.000000, 0.000000, -1.323560, -516.399127 
1370194839.389152, 0.274149, -0.963905, -0.000000, 0.000000, -1.104919, -498.817192 
1380200105.318589, 0.242069, -0.971913, -0.000000, -0.000000, -0.796573, -482.068363 
1390205371.248025, 0.209935, -0.978662, -0.000000, 0.000000, -0.441216, -466.113327 
1400210637.177462, 0.177846, -0.984237, -0.000000, 0.000000, -0.080503, -450.903837 
1410215903.106898, 0.145862, -0.988735, -0.000000, 0.000000, 0.248697, -436.384025 
1420221169.036335, 0.114006, -0.992257, -0.000000, 0.000000, 0.517128, -422.492570 
1430226434.965771, 0.082264, -0.994889, -0.000000, 0.000000, 0.704953, -409.165403 
1440231700.895208, 0.050596, -0.996696, -0.000000, 0.000000, 0.802557, -396.338650 
1450236966.824645, 0.018948, -0.997712, -0.000000, 0.000000, 0.810354, -383.951528 
1460242232.754081, -0.012744, -0.997937, -0.000000, 0.000000, 0.737722, -371.948961 
1470247498.683518, -0.044532, -0.997341, -0.000000, 0.000000, 0.601178, -360.283670 
1480252764.612954, -0.076450, -0.995865, -0.000000, 0.000000, 0.422018, -348.917564 
1490258030.542391, -0.108507, -0.993434, -0.000000, 0.000000, 0.223671, -337.822302 
1500263296.471827, -0.140681, -0.989966, -0.000000, 0.000000, 0.029041, -326.978991 
1510268562.401264, -0.172918, -0.985385, 0.000000, 0.000000, -0.141851, -316.377074 
1520273828.330700, -0.205137, -0.979628, 0.000000, 0.000000, -0.273695, -306.012598 
1530279094.260137, -0.237241, -0.972658, 0.000000, 0.000000, -0.357034, -295.886061 
1540284360.189574, -0.269120, -0.964466, 0.000000, 0.000000, -0.388624, -286.000148 
1550289626.119010, -0.300670, -0.955072, -0.000000, 0.000000, -0.371095, -276.357585 
1560294892.048447, -0.331794, -0.944521, -0.000000, 0.000000, -0.311994, -266.959357 
1570300157.977883, -0.362418, -0.932879, -0.000000, 0.000000, -0.222429, -257.803414 
1580305423.907320, -0.392490, -0.920220, -0.000000, 0.000000, -0.115490, -248.883940 
1590310689.836756, -0.421983, -0.906623, -0.000000, 0.000000, -0.004649, -240.191179 
1600315955.766193, -0.450894, -0.892156, -0.000000, 0.000000, 0.097691, -231.711763 
1610321221.695629, -0.479234, -0.876876, -0.000000, 0.000000, 0.181385, -223.429426 
1620326487.625066, -0.507028, -0.860819, -0.000000, 0.000000, 0.239382, -215.326010 
1630331753.554502, -0.534301, -0.844002, -0.000000, 0.000000, 0.268160, -207.382615 
1640337019.483939, -0.561074, -0.826425, -0.000000, 0.000000, 0.267768, -199.580777 
1650342285.413375, -0.587357, -0.808070, -0.000000, 0.000000, 0.241482, -191.903546 
1660347551.342812, -0.613144, -0.788913, -0.000000, 0.000000, 0.195158, -184.336368 
1670352817.272249, -0.638411, -0.768925, -0.000000, 0.000000, 0.136339, -176.867681 
1680358083.201685, -0.663117, -0.748084, 0.000000, 0.000000, 0.073249, -169.489175 
1690363349.131122, -0.687207, -0.726376, 0.000000, 0.000000, 0.013781, -162.195696 
1700368615.060558, -0.710618, -0.703806, 0.000000, 0.000000, -0.035400, -154.984836 
1710373880.989995, -0.733284, -0.680392, 0.000000, 0.000000, -0.069535, -147.856253 
1720379146.919431, -0.755143, -0.656172, 0.000000, 0.000000, -0.086176, -140.810834 
1730384412.848868, -0.776142, -0.631195, 0.000000, 0.000000, -0.085265, -133.849815 
1740389678.778304, -0.796243, -0.605521, 0.000000, 0.000000, -0.068925, -126.973950 
1750394944.707741, -0.815420, -0.579211, -0.000000, 0.000000, -0.041000, -120.182842 
1760400210.637177, -0.833666, -0.552326, -0.000000, 0.000000, -0.006422, -113.474499 
1770405476.566614, -0.850982, -0.524919, -0.000000, 0.000000, 0.029491, -106.845134 
1780410742.496051, -0.867379, -0.497033, -0.000000, 0.000000, 0.061738, -100.289227 
1790416008.425487, -0.882871, -0.468698, -0.000000, 0.000000, 0.086230, -93.799807 
1800421274.354924, -0.897469, -0.439932, -0.000000, 0.000000, 0.100246, -87.368902 
1810426540.284360, -0.911178, -0.410746, -0.000000, 0.000000, 0.102687, -80.988100 
1820431806.213797, -0.923995, -0.381145, -0.000000, 0.000000, 0.094114, -74.649143 
1830437072.143233, -0.935906, -0.351131, -0.000000, 0.000000, 0.076593, -68.344487 
1840442338.072670, -0.946886, -0.320712, -0.000000, 0.000000, 0.053348, -62.067761 
1850447604.002106, -0.956903, -0.289901, 0.000000, 0.000000, 0.028287, -55.814075 
1860452869.931543, -0.965922, -0.258724, 0.000000, 0.000000, 0.005454, -49.580137 
1870458135.860980, -0.973906, -0.227217, 0.000000, 0.000000, -0.011525, -43.364179 
1880463401.790416, -0.980825, -0.195425, 0.000000, 0.000000, -0.019930, -37.165682 
1890468667.719852, -0.986657, -0.163405, 0.000000, 0.000000, -0.018310, -30.984958 
1900473933.649289, -0.991390, -0.131214, 0.000000, 0.000000, -0.006667, -24.822628 
1910479199.578726, -0.995024, -0.098914, 0.000000, 0.000000, 0.013549, -18.679069 
1920484465.508162, -0.997572, -0.066559, 0.000000, 0.000000, 0.039640, -12.553909 
1930489731.437599, -0.999054, -0.034196, 0.000000, 0.000000, 0.068028, -6.445627 
1940494997.367035, -0.999495, -0.001864, 0.000000, 0.000000, 0.094729, -0.351302 
1950500263.296472, -0.998922, 0.030412, -0.000000, 0.000000, 0.115883, 5.733442 
1960505529.225908, -0.997356, 0.062616, -0.000000, 0.000000, 0.128260, 11.814310 
1970510795.155345, -0.994812, 0.094739, -0.000000, 0.000000, 0.129700, 17.898048 
1980516061.084782, -0.991295, 0.126775, -0.000000, 0.000000, 0.119406, 23.992012 
1990521327.014218, -0.986800, 0.158719, -0.000000, 0.000000, 0.098089, 30.103670 
2000526592.943655, -0.981312, 0.190561, -0.000000, 0.000000, 0.067921, 36.240079 
2010531858.873091, -0.974809, 0.222279, -0.000000, 0.000000, 0.032318, 42.407407 
2020537124.802528, -0.967269, 0.253845, 0.000000, 0.000000, -0.004438, 48.610547 
2030542390.731964, -0.958668, 0.285216, 0.000000, 0.000000, -0.037690, 54.852883 
2040547656.661401, -0.948990, 0.316337, 0.000000, 0.000000, -0.062960, 61.136225 
2050552922.590837, -0.938230, 0.347149, 0.000000, 0.000000, -0.076509, 67.460951 
2060558188.520274, -0.926394, 0.377584, 0.000000, 0.000000, -0.075824, 73.826321 
2070563454.449710, -0.913504, 0.407578, 0.000000, 0.000000, -0.059985, 80.230961 
2080568720.379147, -0.899595, 0.437070, 0.000000, 0.000000, -0.029855, 86.673447 
2090573986.308583, -0.884711, 0.466012, 0.000000, 0.000000, 0.011951, 93.152936 
2100579252.238020, -0.868904, 0.494367, 0.000000, 0.000000, 0.061287, 99.669763 
2110584518.167457, -0.852226, 0.522112, 0.000000, 0.000000, 0.112915, 106.225929 
2120589784.096893, -0.834726, 0.549240, 0.000000, 0.000000, 0.161067, 112.825426 
2130595050.026330, -0.816444, 0.575753, 0.000000, 0.000000, 0.200102, 119.474355 
2140600315.955766, -0.797408, 0.601659, 0.000000, 0.000000, 0.225163, 126.180814 
2150605581.885203, -0.777633, 0.626970, 0.000000, 0.000000, 0.232765, 132.954583 
2160610847.814639, -0.757121, 0.651695, -0.000000, 0.000000, 0.221248, 139.806616 
2170616113.744076, -0.735862, 0.675831, -0.000000, 0.000000, 0.191036, 146.748417 
2180621379.673512, -0.713841, 0.699368, 0.000000, 0.000000, 0.144685, 153.791357 
2190626645.602949, -0.691041, 0.722277, 0.000000, 0.000000, 0.086694, 160.945996 
2200631911.532386, -0.667447, 0.744520, 0.000000, 0.000000, 0.023097, 168.221497 
2210637177.461822, -0.643054, 0.766044, 0.000000, 0.000000, -0.039120, 175.625195 
2220642443.391258, -0.617871, 0.786786, 0.000000, 0.000000, -0.092746, 183.162365 
2230647709.320695, -0.591921, 0.806684, 0.000000, 0.000000, -0.131117, 190.836239 
2240652975.250132, -0.565244, 0.825674, 0.000000, 0.000000, -0.148890, 198.648278 
2250658241.179568, -0.537896, 0.843702, 0.000000, 0.000000, -0.142696, 206.598698 
2260663507.109005, -0.509944, 0.860727, 0.000000, 0.000000, -0.111627, 214.687202 
2270668773.038442, -0.481461, 0.876725, 0.000000, 0.000000, -0.057465, 222.913851 
2280674038.967878, -0.452521, 0.891687, 0.000000, 0.000000, 0.015369, 231.279999 
2290679304.897314, -0.423191, 0.905623, 0.000000, 0.000000, 0.100169, 239.789184 
2300684570.826751, -0.393530, 0.918553, 0.000000, 0.000000, 0.188568, 248.447879 
2310689836.756187, -0.363581, 0.930508, 0.000000, 0.000000, 0.271374, 257.266013 
2320695102.685624, -0.333369, 0.941522, 0.000000, 0.000000, 0.339539, 266.257207 
2330700368.615061, -0.302908, 0.951623, 0.000000, 0.000000, 0.385152, 275.438687 
2340705634.544497, -0.272195, 0.960831, 0.000000, 0.000000, 0.402343, 284.830893 
2350710900.473934, -0.241219, 0.969154, 0.000000, 0.000000, 0.388020, 294.456811 
2360716166.403370, -0.209968, 0.976584, 0.000000, 0.000000, 0.342330, 304.341101 
2370721432.332807, -0.178430, 0.983098, 0.000000, 0.000000, 0.268821, 314.509127 
2380726698.262243, -0.146603, 0.988659, 0.000000, 0.000000, 0.174247, 324.985964 
2390731964.191680, -0.114499, 0.993221, 0.000000, 0.000000, 0.068045, 335.795513 
2400737230.121117, -0.082143, 0.996731, 0.000000, 0.000000, -0.038489, 346.959819 
2410742496.050553, -0.049581, 0.999142, 0.000000, 0.000000, -0.133267, 358.498669 
2420747761.979990, -0.016873, 1.000410, 0.000000, 0.000000, -0.204621, 370.429569 
2430753027.909426, 0.015910, 1.000507, 0.000000, 0.000000, -0.242557, 382.768116 
2440758293.838862, 0.048686, 0.999421, 0.000000, 0.000000, -0.239921, 395.528801 
2450763559.768299, 0.081375, 0.997157, 0.000000, 0.000000, -0.193357, 408.726198 
2460768825.697736, 0.113900, 0.993738, 0.000000, 0.000000, -0.103929, 422.376482 
2470774091.627172, 0.146195, 0.989204, 0.000000, 0.000000, 0.022675, 436.499168 
2480779357.556609, 0.178208, 0.983602, 0.000000, 0.000000, 0.176423, 451.118920 
2490784623.486045, 0.209905, 0.976985, 0.000000, -0.000000, 0.343696, 466.267301 
2500789889.415482, 0.241269, 0.969404, 0.000000, 0.000000, 0.508487, 481.984293 
2510795155.344918, 0.272296, 0.960902, 0.000000, 0.000000, 0.653921, 498.319470 
2520800421.274355, 0.302995, 0.951511, 0.000000, 0.000000, 0.763976, 515.332748 
2530805687.203792, 0.333378, 0.941246, 0.000000, 0.000000, 0.825216, 533.094665 
2540810953.133228, 0.363459, 0.930110, 0.000000, 0.000000, 0.828380, 551.686233 
2550816219.062665, 0.393245, 0.918087, 0.000000, 0.000000, 0.769657, 571.198439 
2560821484.992101, 0.422730, 0.905155, 0.000000, 0.000000, 0.651522, 591.731527 
2570826750.921537, 0.451896, 0.891283, 0.000000, 0.000000, 0.483023, 613.394238 
2580832016.850974, 0.480709, 0.876441, 0.000000, 0.000000, 0.279484, 636.303197 
2590837282.780411, 0.509118, 0.860604, 0.000000, 0.000000, 0.061588, 660.582671 
2600842548.709847, 0.537061, 0.843756, 0.000000, 0.000000, -0.146105, 686.364942 
2610847814.639284, 0.564468, 0.825900, 0.000000, 0.000000, -0.317147, 713.791510 
2620853080.568720, 0.591265, 0.807051, 0.000000, 0.000000, -0.425565, 743.015411 
2630858346.498157, 0.617381, 0.787243, 0.000000, 0.000000, -0.448424, 774.204851 
2640863612.427593, 0.642757, 0.766527, 0.000000, 0.000000, -0.368404, 807.548436 
2650868878.357030, 0.667342, 0.744960, 0.000000, -0.000000, -0.176131, 843.262190 
2660874144.286467, 0.691106, 0.722609, 0.000000, -0.000000, 0.127971, 881.598615 
2670879410.215903, 0.714030, 0.699538, 0.000000, -0.000000, 0.532540, 922.858010 
2680884676.145340, 0.736115, 0.675808, 0.000000, -0.000000, 1.015045, 967.402347 
2690889942.074776, 0.757369, 0.651470, 0.000000, -0.000000, 1.542567, 1015.672145 
2700895208.004213, 0.777812, 0.626559, 0.000000, -0.000000, 2.073610, 1068.206976 
2710900473.933649, 0.797462, 0.601099, 0.000000, -0.000000, 2.560890, 1125.670693 
2720905739.863086, 0.816335, 0.575099, 0.000000, 0.000000, 2.954914, 1188.883043 
2730911005.792522, 0.834439, 0.548557, 0.000000, 0.000000, 3.208148, 1258.860297 
2740916271.721959, 0.851771, 0.521466, 0.000000, 0.000000, 3.279557, 1336.868940 
2750921537.651396, 0.868315, 0.493814, 0.000000, 0.000000, 3.139310, 1424.498618 
2760926803.580832, 0.884041, 0.465593, 0.000000, 0.000000, 2.773561, 1523.763976 
2770932069.510269, 0.898908, 0.436802, 0.000000, 0.000000, 2.189388, 1637.250527 
2780937335.439705, 0.912868, 0.407453, 0.000000, 0.000000, 1.420175, 1768.329061 
2790942601.369142, 0.925868, 0.377570, 0.000000, 0.000000, 0.532222, 1921.479445 
2800947867.298578, 0.937859, 0.347191, 0.000000, 0.000000, -0.365923, 2102.794509 
2810953133.228015, 0.948795, 0.316369, 0.000000, -0.000000, -1.108321, 2320.791677 
2820958399.157452, 0.958645, 0.285164, 0.000000, -0.000000, -1.444257, 2587.774493 
2830963665.086888, 0.967386, 0.253644, 0.000000, -0.000000, -0.984372, 2922.231156 
2840968931.016325, 0.975013, 0.221877, 0.000000, -0.000000, 0.913854, 3353.321330 
2850974196.945761, 0.981532, 0.189928, 0.000000, -0.000000, 5.411653, 3929.926639 
2860979462.875197, 0.986961, 0.157855, 0.000000, -0.000000, 14.877240, 4740.777632 
2870984728.804634, 0.991325, 0.125704, 0.000000, -0.000000, 34.966093, 5965.512591 
2880989994.734071, 0.994653, 0.093511, 0.000000, -0.000000, 82.509687, 8031.197297 
2890995260.663507, 0.996972, 0.061299, 0.000000, -0.000000, 228.974311, 12261.653708 
2901000526.592944, 0.998304, 0.029082, 0.000000, -0.000000, 1128.907172, 25820.739039 
2911005792.522380, 0.998664, -0.003135, 0.000000, -0.000000, 86332.803047, -203405.706203 
2921011058.451817, 0.998055, -0.035346, 0.000000, -0.000000, 792.851047, -21252.281898 
2931016324.381253, 0.996472, -0.067549, 0.000000, 0.000000, 204.342826, -11123.978877 
2941021590.310690, 0.993899, -0.099733, 0.000000, 0.000000, 83.671325, -7526.582325 
2951026856.240127, 0.990317, -0.131884, 0.000000, 0.000000, 40.475425, -5682.441112 
2961032122.169563, 0.985701, -0.163973, 0.000000, 0.000000, 20.953697, -4560.352666 
2971037388.099000, 0.980027, -0.195964, 0.000000, -0.000000, 11.114556, -3805.355071 
2981042654.028436, 0.973277, -0.227812, 0.000000, -0.000000, 5.964312, -3262.487617 
2991047919.957872, 0.965440, -0.259462, 0.000000, -0.000000, 3.325658, -2853.312576 
3001053185.887309, 0.956514, -0.290856, 0.000000, -0.000000, 2.104627, -2533.856431 
3011058451.816746, 0.946510, -0.321934, 0.000000, -0.000000, 1.691104, -2277.540441 
3021063717.746182, 0.935445, -0.352641, 0.000000, -0.000000, 1.718709, -2067.340877 
3031068983.675619, 0.923350, -0.382926, 0.000000, -0.000000, 1.957309, -1891.839106 
3041074249.605055, 0.910259, -0.412745, 0.000000, -0.000000, 2.260240, -1743.082720 
3051079515.534492, 0.896208, -0.442066, 0.000000, -0.000000, 2.536043, -1615.358343 
3061084781.463928, 0.881236, -0.470864, 0.000000, -0.000000, 2.731887, -1504.453190 
3071090047.393365, 0.865375, -0.499123, 0.000000, -0.000000, 2.822859, -1407.192578 
3081095313.322802, 0.848653, -0.526832, 0.000000, -0.000000, 2.804309, -1321.140116 
3091100579.252238, 0.831091, -0.553982, 0.000000, -0.000000, 2.685909, -1244.397350 
3101105845.181675, 0.812704, -0.580565, 0.000000, -0.000000, 2.486749, -1175.466126 
3111111111.111111, 0.793499, -0.606570, 0.000000, -0.000000, 2.231180, -1113.151598 
3121116377.040547, 0.773481, -0.631981, 0.000000, -0.000000, 1.945307, -1056.492175 
3131121642.969984, 0.752651, -0.656775, 0.000000, -0.000000, 1.654117, -1004.707772 
3141126908.899421, 0.731013, -0.680924, 0.000000, -0.000000, 1.379276, -957.160747 
3151132174.828857, 0.708574, -0.704392, 0.000000, -0.000000, 1.137616, -913.325864 
3161137440.758294, 0.685346, -0.727141, 0.000000, -0.000000, 0.940313, -872.766862 
3171142706.687730, 0.661349, -0.749130, 0.000000, -0.000000, 0.792724, -835.117985 
3181147972.617167, 0.636610, -0.770318, 0.000000, -0.000000, 0.694783, -800.069375 
3191153238.546604, 0.611163, -0.790669, 0.000000, -0.000000, 0.641858, -767.355536 
3201158504.476040, 0.585047, -0.810150, 0.000000, -0.000000, 0.625908, -736.746296 
3211163770.405477, 0.558305, -0.828737, 0.000000, -0.000000, 0.636803, -708.039818 
3221169036.334913, 0.530979, -0.846411, 0.000000, -0.000000, 0.663652, -681.057299 
3231174302.264350, 0.503112, -0.863160, 0.000000, -0.000000, 0.696013, -655.639029 
3241179568.193786, 0.474742, -0.878978, 0.000000, -0.000000, 0.724892, -631.641529 
