# stacked metamaterial geometry 
# f [Hz], L [0.001 m]
# Unitcell size lx, ly, lz = 10, 10, 99.931 at center position x = 0 y = 0 z = 0
# Definition of material properties: 
#name =copper,type =const,Kappa =56000000,
#name =FR4,Epsilon =4.4,Kappa =0.048957,type =const,
#name =copperSquares,type =const,Kappa =56000000,
#name =air,type =const,Epsilon =1,
## layer number 1:
# rect patch made of copper. lx, ly, lz = 10, 10, 0.5 at center position x = 0 y = 0 z = -0.25
# background material (if any) is air
# layer number 2:
# rect patch made of FR4. lx, ly, lz = 10, 10, 0.4 at center position x = 0 y = 0 z = -0.7
# background material (if any) is air
# layer number 3:
# square patch made of copperSquares lx, ly, lz = 9, 9, 0.05 at center position x = 0 y = 0 z = -0.925# with circular hole of radius 3.35
# Re/Im parts of the scattering parameters S11 (refl.) and S21 (transm.) and the real and imaginary part of the impedance as a function of frequency 
# first column is frequency, second and third columns are Re/Im of S11 and S21, respectively.
1000000000.000000, 0.993030, -0.089042, 0.000000, 0.000000, 0.563390, -4.632793 
1010005265.929437, 0.991311, -0.120820, 0.000000, 0.000000, 0.255149, -4.768447 
1020010531.858873, 0.988555, -0.153077, 0.000000, 0.000000, -0.063438, -4.810885 
1030015797.788310, 0.984574, -0.185739, 0.000000, 0.000000, -0.365234, -4.762691 
1040021063.717746, 0.979206, -0.218675, 0.000000, 0.000000, -0.625493, -4.634073 
1050026329.647183, 0.972332, -0.251707, 0.000000, -0.000000, -0.823920, -4.441688 
1060031595.576619, 0.963891, -0.284625, 0.000000, -0.000000, -0.946248, -4.206933 
1070036861.506056, 0.953882, -0.317212, 0.000000, -0.000000, -0.985195, -3.953903 
1080042127.435492, 0.942366, -0.349262, 0.000000, -0.000000, -0.940765, -3.707214 
1090047393.364929, 0.929456, -0.380596, 0.000000, -0.000000, -0.819900, -3.489901 
1100052659.294365, 0.915305, -0.411081, -0.000000, -0.000000, -0.635566, -3.321577 
1110057925.223802, 0.900086, -0.440634, -0.000000, -0.000000, -0.405388, -3.216984 
1120063191.153239, 0.883979, -0.469227, -0.000000, -0.000000, -0.149996, -3.185017 
1130068457.082675, 0.867151, -0.496885, -0.000000, -0.000000, 0.108786, -3.228274 
1140073723.012112, 0.849741, -0.523673, -0.000000, -0.000000, 0.349751, -3.343119 
1150078988.941548, 0.831851, -0.549690, -0.000000, 0.000000, 0.553993, -3.520232 
1160084254.870985, 0.813539, -0.575051, -0.000000, 0.000000, 0.706343, -3.745580 
1170089520.800421, 0.794816, -0.599874, -0.000000, 0.000000, 0.796462, -4.001729 
1180094786.729858, 0.775650, -0.624263, -0.000000, 0.000000, 0.819517, -4.269388 
1190100052.659294, 0.755976, -0.648300, -0.000000, 0.000000, 0.776395, -4.529069 
1200105318.588731, 0.735697, -0.672032, 0.000000, 0.000000, 0.673428, -4.762721 
1210110584.518167, 0.714706, -0.695466, 0.000000, 0.000000, 0.521661, -4.955203 
1220115850.447604, 0.692895, -0.718567, 0.000000, 0.000000, 0.335730, -5.095464 
1230121116.377041, 0.670170, -0.741260, 0.000000, 0.000000, 0.132453, -5.177318 
1240126382.306477, 0.646461, -0.763439, 0.000000, 0.000000, -0.070721, -5.199755 
1250131648.235914, 0.621733, -0.784973, 0.000000, -0.000000, -0.257252, -5.166768 
1260136914.165350, 0.595989, -0.805723, 0.000000, -0.000000, -0.412879, -5.086724 
1270142180.094787, 0.569271, -0.825553, 0.000000, -0.000000, -0.526705, -4.971394 
1280147446.024223, 0.541658, -0.844340, 0.000000, -0.000000, -0.591903, -4.834729 
1290152711.953660, 0.513256, -0.861987, 0.000000, -0.000000, -0.606008, -4.691549 
1300157977.883096, 0.484190, -0.878429, -0.000000, -0.000000, -0.570815, -4.556258 
1310163243.812533, 0.454591, -0.893635, -0.000000, -0.000000, -0.491922, -4.441709 
1320168509.741970, 0.424587, -0.907605, -0.000000, -0.000000, -0.378005, -4.358287 
1330173775.671406, 0.394295, -0.920371, -0.000000, -0.000000, -0.239911, -4.313275 
1340179041.600842, 0.363807, -0.931985, -0.000000, -0.000000, -0.089661, -4.310513 
1350184307.530279, 0.333195, -0.942517, -0.000000, -0.000000, 0.060554, -4.350339 
1360189573.459716, 0.302502, -0.952039, -0.000000, 0.000000, 0.199318, -4.429808 
1370194839.389152, 0.271745, -0.960623, -0.000000, 0.000000, 0.316805, -4.543125 
1380200105.318589, 0.240918, -0.968330, -0.000000, 0.000000, 0.405429, -4.682273 
1390205371.248025, 0.209998, -0.975206, -0.000000, 0.000000, 0.460284, -4.837763 
1400210637.177462, 0.178951, -0.981275, -0.000000, 0.000000, 0.479356, -4.999462 
1410215903.106898, 0.147738, -0.986542, 0.000000, 0.000000, 0.463494, -5.157419 
1420221169.036335, 0.116323, -0.990990, 0.000000, 0.000000, 0.416161, -5.302639 
1430226434.965771, 0.084680, -0.994583, 0.000000, 0.000000, 0.342972, -5.427723 
1440231700.895208, 0.052797, -0.997272, 0.000000, 0.000000, 0.251093, -5.527344 
1450236966.824645, 0.020679, -0.998998, 0.000000, 0.000000, 0.148545, -5.598502 
1460242232.754081, -0.011651, -0.999701, 0.000000, -0.000000, 0.043496, -5.640561 
1470247498.683518, -0.044149, -0.999325, 0.000000, -0.000000, -0.056401, -5.655081 
1480252764.612954, -0.076757, -0.997820, 0.000000, -0.000000, -0.144546, -5.645476 
1490258030.542391, -0.109407, -0.995150, 0.000000, -0.000000, -0.215786, -5.616550 
1500263296.471827, -0.142021, -0.991294, 0.000000, -0.000000, -0.266630, -5.573988 
1510268562.401264, -0.174519, -0.986247, -0.000000, -0.000000, -0.295307, -5.523830 
1520273828.330700, -0.206822, -0.980016, -0.000000, -0.000000, -0.301671, -5.472013 
1530279094.260137, -0.238859, -0.972624, -0.000000, -0.000000, -0.287001, -5.423982 
1540284360.189574, -0.270563, -0.964102, -0.000000, -0.000000, -0.253733, -5.384408 
1550289626.119010, -0.301879, -0.954489, -0.000000, -0.000000, -0.205156, -5.357007 
1560294892.048447, -0.332761, -0.943828, -0.000000, 0.000000, -0.145114, -5.344454 
1570300157.977883, -0.363173, -0.932165, -0.000000, 0.000000, -0.077723, -5.348377 
1580305423.907320, -0.393089, -0.919542, -0.000000, 0.000000, -0.007136, -5.369408 
1590310689.836756, -0.422489, -0.906001, -0.000000, 0.000000, 0.062659, -5.407270 
1600315955.766193, -0.451360, -0.891581, -0.000000, 0.000000, 0.127987, -5.460892 
1610321221.695629, -0.479696, -0.876312, 0.000000, 0.000000, 0.185602, -5.528530 
1620326487.625066, -0.507492, -0.860223, 0.000000, 0.000000, 0.232770, -5.607886 
1630331753.554502, -0.534744, -0.843336, 0.000000, 0.000000, 0.267328, -5.696223 
1640337019.483939, -0.561452, -0.825664, 0.000000, 0.000000, 0.287727, -5.790477 
1650342285.413375, -0.587613, -0.807221, 0.000000, 0.000000, 0.293068, -5.887360 
1660347551.342812, -0.613220, -0.788010, 0.000000, -0.000000, 0.283131, -5.983476 
1670352817.272249, -0.638268, -0.768033, 0.000000, -0.000000, 0.258389, -6.075427 
1680358083.201685, -0.662742, -0.747289, 0.000000, -0.000000, 0.220018, -6.159940 
1690363349.131122, -0.686625, -0.725771, 0.000000, -0.000000, 0.169887, -6.234003 
1700368615.060558, -0.709894, -0.703476, 0.000000, -0.000000, 0.110524, -6.295005 
1710373880.989995, -0.732516, -0.680398, -0.000000, -0.000000, 0.045053, -6.340885 
1720379146.919431, -0.754456, -0.656535, -0.000000, -0.000000, -0.022909, -6.370281 
1730384412.848868, -0.775670, -0.631890, -0.000000, -0.000000, -0.089390, -6.382662 
1740389678.778304, -0.796108, -0.606471, -0.000000, -0.000000, -0.150247, -6.378441 
1750394944.707741, -0.815718, -0.580296, -0.000000, -0.000000, -0.201387, -6.359048 
1760400210.637177, -0.834446, -0.553391, -0.000000, 0.000000, -0.239019, -6.326949 
1770405476.566614, -0.852235, -0.525793, -0.000000, 0.000000, -0.259934, -6.285607 
1780410742.496051, -0.869038, -0.497550, -0.000000, 0.000000, -0.261777, -6.239358 
1790416008.425487, -0.884809, -0.468721, -0.000000, 0.000000, -0.243307, -6.193207 
1800421274.354924, -0.899515, -0.439372, -0.000000, 0.000000, -0.204614, -6.152543 
1810426540.284360, -0.913133, -0.409575, 0.000000, 0.000000, -0.147249, -6.122776 
1820431806.213797, -0.925657, -0.379404, 0.000000, 0.000000, -0.074267, -6.108922 
1830437072.143233, -0.937092, -0.348932, 0.000000, 0.000000, 0.009872, -6.115166 
1840442338.072670, -0.947459, -0.318224, 0.000000, 0.000000, 0.099524, -6.144444 
1850447604.002106, -0.956787, -0.287336, 0.000000, 0.000000, 0.188221, -6.198084 
1860452869.931543, -0.965118, -0.256310, 0.000000, -0.000000, 0.269148, -6.275565 
1870458135.860980, -0.972492, -0.225173, 0.000000, -0.000000, 0.335691, -6.374418 
1880463401.790416, -0.978949, -0.193937, 0.000000, -0.000000, 0.382014, -6.490298 
1890468667.719852, -0.984524, -0.162597, 0.000000, -0.000000, 0.403605, -6.617242 
1900473933.649289, -0.989237, -0.131138, 0.000000, -0.000000, 0.397733, -6.748081 
1910479199.578726, -0.993095, -0.099538, -0.000000, -0.000000, 0.363774, -6.874986 
1920484465.508162, -0.996088, -0.067773, -0.000000, -0.000000, 0.303352, -6.990098 
1930489731.437599, -0.998189, -0.035821, -0.000000, -0.000000, 0.220307, -7.086178 
1940494997.367035, -0.999354, -0.003672, -0.000000, -0.000000, 0.120461, -7.157229 
1950500263.296472, -0.999529, 0.028671, -0.000000, -0.000000, 0.011215, -7.199042 
1960505529.225908, -0.998653, 0.061188, -0.000000, 0.000000, -0.098988, -7.209596 
1970510795.155345, -0.996661, 0.093837, -0.000000, 0.000000, -0.201316, -7.189311 
1980516061.084782, -0.993497, 0.126558, -0.000000, 0.000000, -0.287243, -7.141109 
1990521327.014218, -0.989114, 0.159271, -0.000000, 0.000000, -0.349256, -7.070270 
2000526592.943655, -0.983483, 0.191882, -0.000000, 0.000000, -0.381502, -6.984109 
2010531858.873091, -0.976596, 0.224289, 0.000000, 0.000000, -0.380347, -6.891455 
2020537124.802528, -0.968469, 0.256386, 0.000000, 0.000000, -0.344765, -6.801992 
2030542390.731964, -0.959141, 0.288076, 0.000000, 0.000000, -0.276541, -6.725488 
2040547656.661401, -0.948673, 0.319272, 0.000000, 0.000000, -0.180242, -6.670972 
2050552922.590837, -0.937142, 0.349905, 0.000000, 0.000000, -0.062945, -6.645935 
2060558188.520274, -0.924634, 0.379932, 0.000000, -0.000000, 0.066271, -6.655626 
2070563454.449710, -0.911240, 0.409332, 0.000000, -0.000000, 0.197037, -6.702511 
2080568720.379147, -0.897041, 0.438112, 0.000000, -0.000000, 0.318547, -6.785960 
2090573986.308583, -0.882108, 0.466297, 0.000000, -0.000000, 0.420495, -6.902213 
2100579252.238020, -0.866489, 0.493930, 0.000000, -0.000000, 0.493986, -7.044611 
2110584518.167457, -0.850212, 0.521062, -0.000000, -0.000000, 0.532346, -7.204119 
2120589784.096893, -0.833277, 0.547743, -0.000000, -0.000000, 0.531750, -7.370056 
2130595050.026330, -0.815660, 0.574016, -0.000000, -0.000000, 0.491599, -7.530992 
2140600315.955766, -0.797320, 0.599909, -0.000000, -0.000000, 0.414626, -7.675717 
2150605581.885203, -0.778198, 0.625426, -0.000000, -0.000000, 0.306701, -7.794202 
2160610847.814639, -0.758232, 0.650550, -0.000000, 0.000000, 0.176376, -7.878461 
2170616113.744076, -0.737359, 0.675232, -0.000000, 0.000000, 0.034195, -7.923246 
2180621379.673512, -0.715530, 0.699404, -0.000000, 0.000000, -0.108164, -7.926514 
2190626645.602949, -0.692711, 0.722973, -0.000000, 0.000000, -0.238844, -7.889641 
2200631911.532386, -0.668895, 0.745833, -0.000000, 0.000000, -0.346792, -7.817345 
2210637177.461822, -0.644103, 0.767872, 0.000000, 0.000000, -0.422685, -7.717349 
2220642443.391258, -0.618383, 0.788983, 0.000000, 0.000000, -0.459729, -7.599782 
2230647709.320695, -0.591813, 0.809068, 0.000000, 0.000000, -0.454267, -7.476379 
2240652975.250132, -0.564492, 0.828051, 0.000000, 0.000000, -0.406135, -7.359530 
2250658241.179568, -0.536535, 0.845884, 0.000000, 0.000000, -0.318744, -7.261247 
2260663507.109005, -0.508062, 0.862546, 0.000000, -0.000000, -0.198850, -7.192149 
2270668773.038442, -0.479191, 0.878050, 0.000000, -0.000000, -0.056042, -7.160532 
2280674038.967878, -0.450025, 0.892433, 0.000000, -0.000000, 0.098028, -7.171625 
2290679304.897314, -0.420648, 0.905759, 0.000000, -0.000000, 0.250614, -7.227090 
2300684570.826751, -0.391116, 0.918100, 0.000000, -0.000000, 0.388960, -7.324833 
2310689836.756187, -0.361456, 0.929539, -0.000000, -0.000000, 0.501395, -7.459142 
2320695102.685624, -0.331664, 0.940149, -0.000000, -0.000000, 0.578359, -7.621138 
2330700368.615061, -0.301714, 0.949990, -0.000000, -0.000000, 0.613234, -7.799523 
2340705634.544497, -0.271556, 0.959103, -0.000000, -0.000000, 0.602942, -7.981538 
2350710900.473934, -0.241132, 0.967499, -0.000000, -0.000000, 0.548211, -8.154052 
2360716166.403370, -0.210380, 0.975161, -0.000000, 0.000000, 0.453528, -8.304683 
2370721432.332807, -0.179246, 0.982043, -0.000000, 0.000000, 0.326757, -8.422857 
2380726698.262243, -0.147692, 0.988076, -0.000000, 0.000000, 0.178473, -8.500699 
2390731964.191680, -0.115705, 0.993171, -0.000000, 0.000000, 0.021063, -8.533693 
2400737230.121117, -0.083299, 0.997229, -0.000000, 0.000000, -0.132308, -8.521063 
2410742496.050553, -0.050521, 1.000152, 0.000000, 0.000000, -0.268804, -8.465825 
2420747761.979990, -0.017447, 1.001850, 0.000000, 0.000000, -0.376985, -8.374538 
2430753027.909426, 0.015822, 1.002254, 0.000000, 0.000000, -0.447754, -8.256754 
2440758293.838862, 0.049166, 1.001318, 0.000000, 0.000000, -0.475120, -8.124229 
2450763559.768299, 0.082454, 0.999029, 0.000000, 0.000000, -0.456689, -7.989944 
2460768825.697736, 0.115557, 0.995407, 0.000000, -0.000000, -0.393875, -7.867034 
2470774091.627172, 0.148356, 0.990501, 0.000000, -0.000000, -0.291785, -7.767690 
2480779357.556609, 0.180750, 0.984386, 0.000000, -0.000000, -0.158806, -7.702146 
2490784623.486045, 0.212667, 0.977157, 0.000000, -0.000000, -0.005908, -7.677815 
2500789889.415482, 0.244063, 0.968915, 0.000000, -0.000000, 0.154267, -7.698659 
2510795155.344918, 0.274927, 0.959764, -0.000000, -0.000000, 0.308465, -7.764851 
2520800421.274355, 0.305274, 0.949793, -0.000000, -0.000000, 0.443940, -7.872754 
2530805687.203792, 0.335146, 0.939075, -0.000000, -0.000000, 0.549529, -8.015224 
2540810953.133228, 0.364600, 0.927655, -0.000000, -0.000000, 0.616601, -8.182220 
2550816219.062665, 0.393698, 0.915552, -0.000000, -0.000000, 0.639783, -8.361657 
2560821484.992101, 0.422500, 0.902753, -0.000000, 0.000000, 0.617404, -8.540442 
2570826750.921537, 0.451055, 0.889220, -0.000000, 0.000000, 0.551626, -8.705581 
2580832016.850974, 0.479391, 0.874894, -0.000000, 0.000000, 0.448235, -8.845291 
2590837282.780411, 0.507508, 0.859701, -0.000000, 0.000000, 0.316125, -8.949974 
2600842548.709847, 0.535380, 0.843565, -0.000000, 0.000000, 0.166525, -9.013018 
2610847814.639284, 0.562950, 0.826414, 0.000000, 0.000000, 0.012030, -9.031317 
2620853080.568720, 0.590135, 0.808188, 0.000000, 0.000000, -0.134462, -9.005495 
2630858346.498157, 0.616831, 0.788855, 0.000000, 0.000000, -0.260831, -8.939815 
2640863612.427593, 0.642921, 0.768404, 0.000000, 0.000000, -0.356732, -8.841779 
2650868878.357030, 0.668287, 0.746861, 0.000000, 0.000000, -0.414423, -8.721475 
2660874144.286467, 0.692813, 0.724277, 0.000000, -0.000000, -0.429377, -8.590713 
2670879410.215903, 0.716403, 0.700734, 0.000000, -0.000000, -0.400614, -8.462043 
2680884676.145340, 0.738981, 0.676331, 0.000000, -0.000000, -0.330746, -8.347714 
2690889942.074776, 0.760499, 0.651183, 0.000000, -0.000000, -0.225726, -8.258682 
2700895208.004213, 0.780941, 0.625406, 0.000000, -0.000000, -0.094334, -8.203722 
2710900473.933649, 0.800318, 0.599110, -0.000000, -0.000000, 0.052568, -8.188735 
2720905739.863086, 0.818668, 0.572391, -0.000000, -0.000000, 0.202935, -8.216282 
2730911005.792522, 0.836046, 0.545322, -0.000000, -0.000000, 0.344541, -8.285401 
2740916271.721959, 0.852521, 0.517953, -0.000000, -0.000000, 0.465982, -8.391710 
2750921537.651396, 0.868161, 0.490302, -0.000000, -0.000000, 0.557614, -8.527792 
2760926803.580832, 0.883029, 0.462366, -0.000000, 0.000000, 0.612337, -8.683832 
2770932069.510269, 0.897174, 0.434114, -0.000000, 0.000000, 0.626161, -8.848452 
2780937335.439705, 0.910624, 0.405504, -0.000000, 0.000000, 0.598517, -9.009668 
2790942601.369142, 0.923380, 0.376481, -0.000000, 0.000000, 0.532260, -9.155904 
2800947867.298578, 0.935419, 0.346991, -0.000000, 0.000000, 0.433395, -9.276943 
2810953133.228015, 0.946693, 0.316990, 0.000000, 0.000000, 0.310531, -9.364764 
2820958399.157452, 0.957132, 0.286448, 0.000000, 0.000000, 0.174125, -9.414176 
2830963665.086888, 0.966651, 0.255359, 0.000000, 0.000000, 0.035584, -9.423195 
2840968931.016325, 0.975159, 0.223740, 0.000000, 0.000000, -0.093692, -9.393153 
2850974196.945761, 0.982565, 0.191638, 0.000000, 0.000000, -0.203249, -9.328516 
2860979462.875197, 0.988789, 0.159122, 0.000000, -0.000000, -0.284408, -9.236462 
2870984728.804634, 0.993766, 0.126285, 0.000000, -0.000000, -0.330933, -9.126237 
2880989994.734071, 0.997455, 0.093234, 0.000000, -0.000000, -0.339477, -9.008366 
2890995260.663507, 0.999841, 0.060083, 0.000000, -0.000000, -0.309792, -8.893790 
2901000526.592944, 1.000937, 0.026944, 0.000000, -0.000000, -0.244685, -8.792979 
2911005792.522380, 1.000776, -0.006079, -0.000000, -0.000000, -0.149736, -8.715120 
2921011058.451817, 0.999417, -0.038898, -0.000000, -0.000000, -0.032812, -8.667406 
2931016324.381253, 0.996931, -0.071445, -0.000000, -0.000000, 0.096600, -8.654506 
2941021590.310690, 0.993395, -0.103677, -0.000000, -0.000000, 0.228157, -8.678234 
2951026856.240127, 0.988886, -0.135575, -0.000000, -0.000000, 0.351500, -8.737442 
2961032122.169563, 0.983476, -0.167141, -0.000000, 0.000000, 0.457068, -8.828150 
2971037388.099000, 0.977219, -0.198397, -0.000000, 0.000000, 0.536857, -8.943903 
2981042654.028436, 0.970153, -0.229378, -0.000000, 0.000000, 0.585039, -9.076313 
2991047919.957872, 0.962293, -0.260121, -0.000000, 0.000000, 0.598404, -9.215762 
3001053185.887309, 0.953632, -0.290666, -0.000000, 0.000000, 0.576579, -9.352193 
3011058451.816746, 0.944144, -0.321043, 0.000000, 0.000000, 0.522020, -9.475934 
3021063717.746182, 0.933786, -0.351266, 0.000000, 0.000000, 0.439761, -9.578471 
3031068983.675619, 0.922505, -0.381334, 0.000000, 0.000000, 0.336958, -9.653118 
3041074249.605055, 0.910243, -0.411221, 0.000000, 0.000000, 0.222269, -9.695516 
3051079515.534492, 0.896944, -0.440881, 0.000000, 0.000000, 0.105119, -9.703931 
3061084781.463928, 0.882565, -0.470248, 0.000000, -0.000000, -0.005071, -9.679327 
3071090047.393365, 0.867073, -0.499241, 0.000000, -0.000000, -0.099632, -9.625215 
3081095313.322802, 0.850460, -0.527767, 0.000000, -0.000000, -0.171304, -9.547311 
3091100579.252238, 0.832735, -0.555729, 0.000000, -0.000000, -0.214768, -9.453024 
3101105845.181675, 0.813931, -0.583033, 0.000000, -0.000000, -0.226997, -9.350842 
3111111111.111111, 0.794102, -0.609595, -0.000000, -0.000000, -0.207431, -9.249648 
3121116377.040547, 0.773316, -0.635343, -0.000000, -0.000000, -0.157949, -9.158042 
3131121642.969984, 0.751653, -0.660224, -0.000000, -0.000000, -0.082674, -9.083693 
3141126908.899421, 0.729200, -0.684205, -0.000000, -0.000000, 0.012389, -9.032787 
3151132174.828857, 0.706040, -0.707274, -0.000000, -0.000000, 0.119838, -9.009593 
3161137440.758294, 0.682253, -0.729437, -0.000000, 0.000000, 0.231457, -9.016175 
3171142706.687730, 0.657904, -0.750715, -0.000000, 0.000000, 0.338839, -9.052275 
3181147972.617167, 0.633045, -0.771142, -0.000000, 0.000000, 0.434029, -9.115358 
3191153238.546604, 0.607708, -0.790754, -0.000000, 0.000000, 0.510118, -9.200840 
3201158504.476040, 0.581910, -0.809591, -0.000000, 0.000000, 0.561756, -9.302459 
3211163770.405477, 0.555650, -0.827683, 0.000000, 0.000000, 0.585542, -9.412774 
3221169036.334913, 0.528912, -0.845053, 0.000000, 0.000000, 0.580261, -9.523757 
3231174302.264350, 0.501673, -0.861706, 0.000000, 0.000000, 0.546945, -9.627414 
3241179568.193786, 0.473903, -0.877635, 0.000000, 0.000000, 0.488759, -9.716406 
3251184834.123223, 0.445577, -0.892812, 0.000000, 0.000000, 0.410716, -9.784604 
3261190100.052660, 0.416673, -0.907195, 0.000000, -0.000000, 0.319258, -9.827529 
3271195365.982096, 0.387181, -0.920729, 0.000000, -0.000000, 0.221729, -9.842666 
3281200631.911532, 0.357106, -0.933349, 0.000000, -0.000000, 0.125800, -9.829604 
