# stacked metamaterial geometry 
# f [Hz], L [0.001 m]
# Unitcell size lx, ly, lz = 10, 10, 99.9308 at center position x = 0 y = 0 z = 0
# Definition of material properties: 
#name =copper,type =const,Kappa =56000000,
#name =FR4,Epsilon =4.4,Kappa =0.048957,type =const,
#name =copperSquares,type =const,Kappa =56000000,
#name =air,type =const,Epsilon =1,
## layer number 1:
# rect patch made of copper. lx, ly, lz = 10, 10, 0.5 at center position x = 0 y = 0 z = -0.25
# background material (if any) is air
# layer number 2:
# rect patch made of FR4. lx, ly, lz = 10, 10, 0.4 at center position x = 0 y = 0 z = -0.7
# background material (if any) is air
# layer number 3:
# square patch made of copperSquares lx, ly, lz = 9, 9, 0.05 at center position x = 0 y = 0 z = -0.925# with circular hole of radius 2.35
# Re/Im parts of the scattering parameters S11 (refl.) and S21 (transm.) and the real and imaginary part of the impedance as a function of frequency 
# first column is frequency, second and third columns are Re/Im of S11 and S21, respectively.
1000000000.000000, 0.997405, -0.088682, -0.000000, 0.000000, -128.309880, -8488.959994 
1010005265.929437, 0.995480, -0.121806, -0.000000, 0.000000, -147.483855, -6177.218502 
1020010531.858873, 0.992108, -0.155275, -0.000000, 0.000000, -130.746371, -4839.926778 
1030015797.788310, 0.987165, -0.188893, -0.000000, 0.000000, -106.942091, -3970.489407 
1040021063.717746, 0.980585, -0.222433, -0.000000, 0.000000, -83.307027, -3361.751995 
1050026329.647183, 0.972375, -0.255655, -0.000000, 0.000000, -61.943437, -2913.158530 
1060031595.576619, 0.962607, -0.288334, -0.000000, -0.000000, -43.444621, -2569.925719 
1070036861.506056, 0.951416, -0.320278, -0.000000, -0.000000, -27.897574, -2299.603523 
1080042127.435492, 0.938982, -0.351347, -0.000000, -0.000000, -15.203101, -2081.705368 
1090047393.364929, 0.925508, -0.381463, -0.000000, -0.000000, -5.186890, -1902.629149 
1100052659.294365, 0.911201, -0.410616, -0.000000, -0.000000, 2.361217, -1752.967292 
1110057925.223802, 0.896249, -0.438857, -0.000000, -0.000000, 7.674349, -1625.991574 
1120063191.153239, 0.880801, -0.466286, -0.000000, -0.000000, 11.005278, -1516.756672 
1130068457.082675, 0.864959, -0.493040, -0.000000, -0.000000, 12.625468, -1421.548419 
1140073723.012112, 0.848763, -0.519273, -0.000000, 0.000000, 12.823090, -1337.532994 
1150078988.941548, 0.832198, -0.545135, -0.000000, 0.000000, 11.898301, -1262.527275 
1160084254.870985, 0.815193, -0.570753, -0.000000, 0.000000, 10.155214, -1194.843746 
1170089520.800421, 0.797633, -0.596220, -0.000000, 0.000000, 7.890932, -1133.181604 
1180094786.729858, 0.779375, -0.621577, -0.000000, 0.000000, 5.382846, -1076.546313 
1190100052.659294, 0.760265, -0.646811, -0.000000, 0.000000, 2.875925, -1024.186606 
1200105318.588731, 0.740154, -0.671851, -0.000000, 0.000000, 0.571894, -975.542423 
1210110584.518167, 0.718919, -0.696577, -0.000000, 0.000000, -1.378119, -930.200378 
1220115850.447604, 0.696479, -0.720824, -0.000000, 0.000000, -2.876530, -887.855368 
1230121116.377041, 0.672803, -0.744407, -0.000000, 0.000000, -3.877738, -848.278020 
1240126382.306477, 0.647919, -0.767130, -0.000000, 0.000000, -4.382676, -811.288066 
1250131648.235914, 0.621911, -0.788813, -0.000000, 0.000000, -4.430595, -776.733654 
1260136914.165350, 0.594911, -0.809304, -0.000000, 0.000000, -4.089378, -744.476273 
1270142180.094787, 0.567088, -0.828495, -0.000000, 0.000000, -3.445553, -714.380654 
1280147446.024223, 0.538630, -0.846332, -0.000000, -0.000000, -2.594929, -686.308796 
1290152711.953660, 0.509725, -0.862817, -0.000000, -0.000000, -1.634394, -660.117171 
1300157977.883096, 0.480546, -0.878001, -0.000000, -0.000000, -0.655157, -635.656282 
1310163243.812533, 0.451233, -0.891978, -0.000000, -0.000000, 0.262522, -612.771844 
1320168509.741970, 0.421882, -0.904871, -0.000000, 0.000000, 1.053186, -591.307069 
1330173775.671406, 0.392543, -0.916816, -0.000000, 0.000000, 1.668717, -571.105671 
1340179041.600842, 0.363216, -0.927945, -0.000000, 0.000000, 2.079642, -552.015293 
1350184307.530279, 0.333857, -0.938372, -0.000000, 0.000000, 2.275254, -533.891135 
1360189573.459716, 0.304389, -0.948178, -0.000000, 0.000000, 2.262606, -516.599532 
1370194839.389152, 0.274710, -0.957407, -0.000000, 0.000000, 2.064409, -500.021209 
1380200105.318589, 0.244711, -0.966058, -0.000000, 0.000000, 1.715964, -484.053946 
1390205371.248025, 0.214291, -0.974082, -0.000000, 0.000000, 1.261325, -468.614356 
1400210637.177462, 0.183368, -0.981395, -0.000000, 0.000000, 0.749002, -453.638565 
1410215903.106898, 0.151893, -0.987879, -0.000000, 0.000000, 0.227572, -439.081684 
1420221169.036335, 0.119858, -0.993399, -0.000000, 0.000000, -0.258382, -424.916090 
1430226434.965771, 0.087299, -0.997817, -0.000000, 0.000000, -0.671649, -411.128706 
1440231700.895208, 0.054298, -1.001004, 0.000000, 0.000000, -0.984790, -397.717568 
1450236966.824645, 0.020970, -1.002856, 0.000000, 0.000000, -1.181442, -384.688049 
1460242232.754081, -0.012539, -1.003304, 0.000000, 0.000000, -1.256511, -372.049100 
1470247498.683518, -0.046071, -1.002322, -0.000000, 0.000000, -1.215374, -359.809848 
1480252764.612954, -0.079466, -0.999924, -0.000000, 0.000000, -1.072327, -347.976761 
1490258030.542391, -0.112581, -0.996167, -0.000000, 0.000000, -0.848500, -336.551546 
1500263296.471827, -0.145295, -0.991139, -0.000000, 0.000000, -0.569490, -325.529792 
1510268562.401264, -0.177522, -0.984952, -0.000000, 0.000000, -0.262947, -314.900358 
1520273828.330700, -0.209214, -0.977726, -0.000000, 0.000000, 0.043732, -304.645419 
1530279094.260137, -0.240361, -0.969580, -0.000000, 0.000000, 0.325463, -294.741077 
1540284360.189574, -0.270986, -0.960617, -0.000000, 0.000000, 0.561185, -285.158435 
1550289626.119010, -0.301139, -0.950919, -0.000000, 0.000000, 0.735148, -275.865008 
1560294892.048447, -0.330888, -0.940536, -0.000000, 0.000000, 0.837745, -266.826382 
1570300157.977883, -0.360305, -0.929485, -0.000000, 0.000000, 0.865835, -258.007974 
1580305423.907320, -0.389460, -0.917751, -0.000000, 0.000000, 0.822569, -249.376780 
1590310689.836756, -0.418407, -0.905289, -0.000000, 0.000000, 0.716730, -240.902981 
1600315955.766193, -0.447176, -0.892034, -0.000000, 0.000000, 0.561650, -232.561263 
1610321221.695629, -0.475768, -0.877906, -0.000000, 0.000000, 0.373810, -224.331763 
1620326487.625066, -0.504154, -0.862822, 0.000000, 0.000000, 0.171244, -216.200546 
1630331753.554502, -0.532271, -0.846709, 0.000000, 0.000000, -0.028097, -208.159584 
1640337019.483939, -0.560033, -0.829509, 0.000000, 0.000000, -0.207857, -200.206276 
1650342285.413375, -0.587334, -0.811190, 0.000000, 0.000000, -0.354548, -192.342555 
1660347551.342812, -0.614058, -0.791749, 0.000000, 0.000000, -0.458455, -184.573717 
1670352817.272249, -0.640087, -0.771214, 0.000000, 0.000000, -0.514147, -176.907086 
1680358083.201685, -0.665316, -0.749642, 0.000000, 0.000000, -0.520572, -169.350661 
1690363349.131122, -0.689656, -0.727112, -0.000000, 0.000000, -0.480773, -161.911867 
1700368615.060558, -0.713043, -0.703721, -0.000000, 0.000000, -0.401303, -154.596490 
1710373880.989995, -0.735438, -0.679572, -0.000000, 0.000000, -0.291409, -147.407874 
1720379146.919431, -0.756830, -0.654768, -0.000000, 0.000000, -0.162090, -140.346396 
1730384412.848868, -0.777232, -0.629403, -0.000000, 0.000000, -0.025099, -133.409237 
1740389678.778304, -0.796676, -0.603554, -0.000000, 0.000000, 0.108027, -126.590429 
1750394944.707741, -0.815208, -0.577279, -0.000000, 0.000000, 0.226844, -119.881145 
1760400210.637177, -0.832878, -0.550614, -0.000000, 0.000000, 0.322741, -113.270196 
1770405476.566614, -0.849736, -0.523573, -0.000000, 0.000000, 0.389492, -106.744687 
1780410742.496051, -0.865820, -0.496149, -0.000000, 0.000000, 0.423596, -100.290783 
1790416008.425487, -0.881158, -0.468324, -0.000000, 0.000000, 0.424393, -93.894504 
1800421274.354924, -0.895757, -0.440066, -0.000000, 0.000000, 0.393942, -87.542522 
1810426540.284360, -0.909608, -0.411343, 0.000000, 0.000000, 0.336694, -81.222858 
1820431806.213797, -0.922679, -0.382127, 0.000000, 0.000000, 0.258979, -74.925451 
1830437072.143233, -0.934926, -0.352398, 0.000000, 0.000000, 0.168364, -68.642540 
1840442338.072670, -0.946290, -0.322152, 0.000000, 0.000000, 0.072949, -62.368838 
1850447604.002106, -0.956706, -0.291402, 0.000000, 0.000000, -0.019338, -56.101484 
1860452869.931543, -0.966109, -0.260178, 0.000000, 0.000000, -0.101382, -49.839806 
1870458135.860980, -0.974438, -0.228530, 0.000000, 0.000000, -0.167398, -43.584912 
1880463401.790416, -0.981644, -0.196520, 0.000000, 0.000000, -0.213293, -37.339179 
1890468667.719852, -0.987690, -0.164222, 0.000000, 0.000000, -0.236857, -31.105677 
1900473933.649289, -0.992556, -0.131716, 0.000000, 0.000000, -0.237771, -24.887607 
1910479199.578726, -0.996237, -0.099081, -0.000000, 0.000000, -0.217476, -18.687772 
1920484465.508162, -0.998745, -0.066394, -0.000000, 0.000000, -0.178907, -12.508146 
1930489731.437599, -1.000101, -0.033722, -0.000000, 0.000000, -0.126144, -6.349545 
1940494997.367035, -1.000339, -0.001123, -0.000000, 0.000000, -0.064008, -0.211420 
1950500263.296472, -0.999496, 0.031358, -0.000000, 0.000000, 0.002356, 5.908229 
1960505529.225908, -0.997609, 0.063686, -0.000000, 0.000000, 0.067875, 12.012824 
1970510795.155345, -0.994716, 0.095841, -0.000000, 0.000000, 0.127915, 18.107090 
1980516061.084782, -0.990847, 0.127809, -0.000000, 0.000000, 0.178576, 24.196842 
1990521327.014218, -0.986026, 0.159583, 0.000000, 0.000000, 0.216907, 30.288724 
2000526592.943655, -0.980268, 0.191160, 0.000000, 0.000000, 0.241048, 36.389910 
2010531858.873091, -0.973579, 0.222538, 0.000000, 0.000000, 0.250265, 42.507791 
2020537124.802528, -0.965958, 0.253712, 0.000000, 0.000000, 0.244914, 48.649678 
2030542390.731964, -0.957398, 0.284674, 0.000000, 0.000000, 0.226317, 54.822545 
2040547656.661401, -0.947886, 0.315406, 0.000000, 0.000000, 0.196584, 61.032821 
2050552922.590837, -0.937408, 0.345887, 0.000000, 0.000000, 0.158398, 67.286251 
2060558188.520274, -0.925951, 0.376087, 0.000000, 0.000000, 0.114771, 73.587830 
2070563454.449710, -0.913504, 0.405970, 0.000000, 0.000000, 0.068818, 79.941807 
2080568720.379147, -0.900060, 0.435493, 0.000000, 0.000000, 0.023548, 86.351749 
2090573986.308583, -0.885618, 0.464611, 0.000000, 0.000000, -0.018306, 92.820650 
2100579252.238020, -0.870184, 0.493275, 0.000000, 0.000000, -0.054406, 99.351066 
2110584518.167457, -0.853767, 0.521437, 0.000000, 0.000000, -0.082887, 105.945272 
2120589784.096893, -0.836387, 0.549049, 0.000000, 0.000000, -0.102394, 112.605403 
2130595050.026330, -0.818066, 0.576065, -0.000000, 0.000000, -0.112078, 119.333587 
2140600315.955766, -0.798831, 0.602441, -0.000000, 0.000000, -0.111580, 126.132062 
2150605581.885203, -0.778715, 0.628138, -0.000000, 0.000000, -0.100995, 133.003266 
2160610847.814639, -0.757752, 0.653120, -0.000000, 0.000000, -0.080843, 139.949917 
2170616113.744076, -0.735980, 0.677358, 0.000000, 0.000000, -0.052040, 146.975080 
2180621379.673512, -0.713436, 0.700823, 0.000000, 0.000000, -0.015867, 154.082229 
2190626645.602949, -0.690160, 0.723495, 0.000000, 0.000000, 0.026045, 161.275320 
2200631911.532386, -0.666191, 0.745356, 0.000000, 0.000000, 0.071741, 168.558871 
2210637177.461822, -0.641566, 0.766392, 0.000000, 0.000000, 0.118978, 175.938053 
2220642443.391258, -0.616321, 0.786594, 0.000000, 0.000000, 0.165277, 183.418788 
2230647709.320695, -0.590489, 0.805957, 0.000000, 0.000000, 0.208005, 191.007859 
2240652975.250132, -0.564100, 0.824477, 0.000000, 0.000000, 0.244483, 198.713001 
2250658241.179568, -0.537178, 0.842152, 0.000000, 0.000000, 0.272132, 206.542978 
2260663507.109005, -0.509745, 0.858981, 0.000000, 0.000000, 0.288641, 214.507632 
2270668773.038442, -0.481818, 0.874960, 0.000000, 0.000000, 0.292152, 222.617878 
2280674038.967878, -0.453411, 0.890084, 0.000000, 0.000000, 0.281452, 230.885654 
2290679304.897314, -0.424533, 0.904343, 0.000000, 0.000000, 0.256143, 239.323818 
2300684570.826751, -0.395195, 0.917723, 0.000000, 0.000000, 0.216784, 247.945987 
2310689836.756187, -0.365405, 0.930206, 0.000000, 0.000000, 0.164986, 256.766340 
2320695102.685624, -0.335176, 0.941766, 0.000000, 0.000000, 0.103432, 265.799383 
2330700368.615061, -0.304524, 0.952374, 0.000000, 0.000000, 0.035833, 275.059709 
2340705634.544497, -0.273471, 0.961997, 0.000000, 0.000000, -0.033214, 284.561763 
2350710900.473934, -0.242045, 0.970599, 0.000000, 0.000000, -0.098440, 294.319640 
2360716166.403370, -0.210285, 0.978147, 0.000000, 0.000000, -0.154213, 304.346939 
2370721432.332807, -0.178234, 0.984608, 0.000000, 0.000000, -0.194918, 314.656701 
2380726698.262243, -0.145947, 0.989955, 0.000000, 0.000000, -0.215391, 325.261460 
2390731964.191680, -0.113482, 0.994169, 0.000000, 0.000000, -0.211392, 336.173418 
2400737230.121117, -0.080903, 0.997240, 0.000000, 0.000000, -0.180074, 347.404781 
2410742496.050553, -0.048273, 0.999170, 0.000000, 0.000000, -0.120410, 358.968248 
2420747761.979990, -0.015657, 0.999968, 0.000000, 0.000000, -0.033538, 370.877660 
2430753027.909426, 0.016890, 0.999656, 0.000000, 0.000000, 0.077041, 383.148791 
2440758293.838862, 0.049315, 0.998264, 0.000000, 0.000000, 0.205434, 395.800234 
2450763559.768299, 0.081580, 0.995827, 0.000000, 0.000000, 0.343544, 408.854354 
2460768825.697736, 0.113655, 0.992381, 0.000000, 0.000000, 0.481486, 422.338214 
2470774091.627172, 0.145521, 0.987962, 0.000000, 0.000000, 0.608212, 436.284433 
2480779357.556609, 0.177171, 0.982601, 0.000000, 0.000000, 0.712324, 450.731900 
2490784623.486045, 0.208605, 0.976320, 0.000000, -0.000000, 0.783010, 465.726291 
2500789889.415482, 0.239826, 0.969132, 0.000000, -0.000000, 0.811033, 481.320375 
2510795155.344918, 0.270840, 0.961039, 0.000000, -0.000000, 0.789692, 497.574090 
2520800421.274355, 0.301650, 0.952029, 0.000000, 0.000000, 0.715674, 514.554427 
2530805687.203792, 0.332250, 0.942084, 0.000000, 0.000000, 0.589729, 532.335152 
2540810953.133228, 0.362625, 0.931178, 0.000000, 0.000000, 0.417094, 550.996458 
2550816219.062665, 0.392750, 0.919281, 0.000000, 0.000000, 0.207649, 570.624601 
2560821484.992101, 0.422584, 0.906365, 0.000000, 0.000000, -0.024262, 591.311634 
2570826750.921537, 0.452075, 0.892405, 0.000000, 0.000000, -0.260333, 613.155322 
2580832016.850974, 0.481159, 0.877387, 0.000000, 0.000000, -0.479153, 636.259377 
2590837282.780411, 0.509765, 0.861309, 0.000000, 0.000000, -0.657391, 660.734122 
2600842548.709847, 0.537820, 0.844184, 0.000000, 0.000000, -0.771318, 686.697748 
2610847814.639284, 0.565247, 0.826040, 0.000000, 0.000000, -0.798591, 714.278339 
2620853080.568720, 0.591980, 0.806922, 0.000000, 0.000000, -0.720249, 743.616861 
2630858346.498157, 0.617960, 0.786884, 0.000000, 0.000000, -0.522796, 774.871323 
2640863612.427593, 0.643144, 0.765993, 0.000000, 0.000000, -0.200225, 808.222347 
2650868878.357030, 0.667501, 0.744319, 0.000000, 0.000000, 0.244195, 843.880376 
2660874144.286467, 0.691021, 0.721932, 0.000000, 0.000000, 0.796573, 882.094749 
2670879410.215903, 0.713707, 0.698895, 0.000000, -0.000000, 1.431682, 923.164939 
2680884676.145340, 0.735576, 0.675262, 0.000000, -0.000000, 2.113012, 967.454253 
2690889942.074776, 0.756652, 0.651073, 0.000000, -0.000000, 2.793703, 1015.406501 
2700895208.004213, 0.776963, 0.626352, 0.000000, -0.000000, 3.418342, 1067.566329 
2710900473.933649, 0.796537, 0.601110, 0.000000, -0.000000, 3.925546, 1124.604374 
2720905739.863086, 0.815393, 0.575339, 0.000000, -0.000000, 4.251199, 1187.349000 
2730911005.792522, 0.833539, 0.549024, 0.000000, -0.000000, 4.332150, 1256.827345 
2740916271.721959, 0.850971, 0.522141, 0.000000, -0.000000, 4.110229, 1334.319837 
2750921537.651396, 0.867665, 0.494667, 0.000000, 0.000000, 3.536492, 1421.434518 
2760926803.580832, 0.883584, 0.466582, 0.000000, 0.000000, 2.575763, 1520.210929 
2770932069.510269, 0.898675, 0.437873, 0.000000, 0.000000, 1.211722, 1633.268931 
2780937335.439705, 0.912877, 0.408546, 0.000000, 0.000000, -0.546844, 1764.027200 
2790942601.369142, 0.926120, 0.378618, 0.000000, 0.000000, -2.657505, 1917.032778 
2800947867.298578, 0.938336, 0.348129, 0.000000, 0.000000, -5.031169, 2098.473233 
2810953133.228015, 0.949464, 0.317135, 0.000000, 0.000000, -7.510292, 2317.000887 
2820958399.157452, 0.959450, 0.285706, 0.000000, 0.000000, -9.829305, 2585.114958 
2830963665.086888, 0.968260, 0.253926, 0.000000, 0.000000, -11.537007, 2921.596759 
2840968931.016325, 0.975875, 0.221884, 0.000000, -0.000000, -11.831471, 3356.067899 
2850974196.945761, 0.982298, 0.189669, 0.000000, -0.000000, -9.174001, 3938.194143 
2860979462.875197, 0.987550, 0.157365, 0.000000, -0.000000, -0.273007, 4758.181930 
2870984728.804634, 0.991667, 0.125045, 0.000000, -0.000000, 23.050649, 5998.870448 
2880989994.734071, 0.994697, 0.092765, 0.000000, -0.000000, 86.039486, 8095.823008 
2890995260.663507, 0.996696, 0.060563, 0.000000, -0.000000, 299.981536, 12403.998312 
2901000526.592944, 0.997716, 0.028460, 0.000000, -0.000000, 1734.403042, 26304.806270 
2911005792.522380, 0.997805, -0.003542, 0.000000, -0.000000, 94890.212339, -153694.504400 
2921011058.451817, 0.996998, -0.035454, 0.000000, -0.000000, 1409.697943, -21100.741932 
2931016324.381253, 0.995317, -0.067297, 0.000000, -0.000000, 398.542080, -11142.127520 
2941021590.310690, 0.992765, -0.099096, 0.000000, -0.000000, 175.457940, -7563.043578 
2951026856.240127, 0.989326, -0.130872, 0.000000, -0.000000, 89.728465, -5719.175374 
2961032122.169563, 0.984970, -0.162640, 0.000000, -0.000000, 47.758490, -4593.455164 
2971037388.099000, 0.979654, -0.194400, 0.000000, -0.000000, 24.514708, -3833.833320 
2981042654.028436, 0.973328, -0.226135, 0.000000, -0.000000, 10.867410, -3286.190871 
2991047919.957872, 0.965939, -0.257810, 0.000000, 0.000000, 2.761416, -2872.405733 
3001053185.887309, 0.957440, -0.289371, 0.000000, 0.000000, -1.882646, -2548.655675 
3011058451.816746, 0.947795, -0.320748, 0.000000, -0.000000, -4.259131, -2288.450539 
3021063717.746182, 0.936981, -0.351857, 0.000000, -0.000000, -5.120250, -2074.823926 
3031068983.675619, 0.924996, -0.382609, 0.000000, -0.000000, -4.975609, -1896.393345 
3041074249.605055, 0.911859, -0.412912, 0.000000, -0.000000, -4.189584, -1745.224583 
3051079515.534492, 0.897606, -0.442680, 0.000000, -0.000000, -3.032016, -1615.605664 
3061084781.463928, 0.882293, -0.471837, 0.000000, -0.000000, -1.706176, -1503.309153 
3071090047.393365, 0.865988, -0.500325, 0.000000, -0.000000, -0.365065, -1405.130585 
3081095313.322802, 0.848765, -0.528104, 0.000000, -0.000000, 0.878486, -1318.589997 
3091100579.252238, 0.830702, -0.555152, 0.000000, -0.000000, 1.945103, -1241.733439 
3101105845.181675, 0.811870, -0.581469, 0.000000, -0.000000, 2.784004, -1172.997772 
3111111111.111111, 0.792329, -0.607069, 0.000000, -0.000000, 3.369100, -1111.116651 
3121116377.040547, 0.772125, -0.631978, 0.000000, -0.000000, 3.695522, -1055.053911 
3131121642.969984, 0.751285, -0.656227, 0.000000, -0.000000, 3.776250, -1003.955551 
3141126908.899421, 0.729820, -0.679848, 0.000000, -0.000000, 3.638670, -957.114454 
3151132174.828857, 0.707723, -0.702866, 0.000000, -0.000000, 3.320973, -913.943919 
3161137440.758294, 0.684973, -0.725294, 0.000000, -0.000000, 2.868436, -873.957259 
3171142706.687730, 0.661539, -0.747131, 0.000000, -0.000000, 2.329696, -836.751557 
3181147972.617167, 0.637391, -0.768358, 0.000000, -0.000000, 1.753184, -801.994292 
3191153238.546604, 0.612496, -0.788936, 0.000000, -0.000000, 1.183912, -769.411927 
3201158504.476040, 0.586834, -0.808813, 0.000000, -0.000000, 0.660806, -738.779924 
3211163770.405477, 0.560396, -0.827922, 0.000000, -0.000000, 0.214727, -709.913874 
3221169036.334913, 0.533191, -0.846189, 0.000000, -0.000000, -0.132728, -682.661582 
3231174302.264350, 0.505247, -0.863538, 0.000000, -0.000000, -0.369643, -656.896073 
3241179568.193786, 0.476611, -0.879895, 0.000000, -0.000000, -0.493464, -632.509529 
