# stacked metamaterial geometry 
# f [Hz], L [0.001 m]
# Unitcell size lx, ly, lz = 10, 10, 99.931 at center position x = 0 y = 0 z = 0
# Definition of material properties: 
#name =copper,type =const,Kappa =56000000,
#name =FR4,Epsilon =4.4,Kappa =0.048957,type =const,
#name =copperSquares,type =const,Kappa =56000000,
#name =air,type =const,Epsilon =1,
## layer number 1:
# rect patch made of copper. lx, ly, lz = 10, 10, 0.5 at center position x = 0 y = 0 z = -0.25
# background material (if any) is air
# layer number 2:
# rect patch made of FR4. lx, ly, lz = 10, 10, 4 at center position x = 0 y = 0 z = -2.5
# background material (if any) is air
# Re/Im parts of the scattering parameters S11 (refl.) and S21 (transm.) and the real and imaginary part of the impedance as a function of frequency 
# first column is frequency, second and third columns are Re/Im of S11 and S21, respectively.
1000000000.000000, 0.997910, -0.101146, -0.000000, -0.000000, -222.858469, -7446.060394 
1010005265.929437, 0.993733, -0.133575, -0.000000, -0.000000, -112.644182, -5628.322340 
1020010531.858873, 0.988499, -0.165812, -0.000000, -0.000000, -63.057767, -4522.305954 
1030015797.788310, 0.982221, -0.197822, -0.000000, -0.000000, -37.158828, -3778.262200 
1040021063.717746, 0.974910, -0.229572, -0.000000, -0.000000, -22.266805, -3243.286603 
1050026329.647183, 0.966579, -0.261029, -0.000000, -0.000000, -13.120041, -2839.945440 
1060031595.576619, 0.957244, -0.292162, -0.000000, -0.000000, -7.233419, -2524.834368 
1070036861.506056, 0.946917, -0.322941, -0.000000, -0.000000, -3.316846, -2271.738017 
1080042127.435492, 0.935615, -0.353336, -0.000000, -0.000000, -0.650441, -2063.888512 
1090047393.364929, 0.923355, -0.383318, -0.000000, -0.000000, 1.191078, -1890.061752 
1100052659.294365, 0.910152, -0.412858, -0.000000, -0.000000, 2.470842, -1742.461415 
1110057925.223802, 0.896025, -0.441931, -0.000000, -0.000000, 3.358011, -1615.503327 
1120063191.153239, 0.880990, -0.470508, -0.000000, -0.000000, 3.964889, -1505.082887 
1130068457.082675, 0.865066, -0.498565, -0.000000, -0.000000, 4.368112, -1408.115498 
1140073723.012112, 0.848272, -0.526077, -0.000000, -0.000000, 4.621235, -1322.238279 
1150078988.941548, 0.830627, -0.553018, -0.000000, -0.000000, 4.762463, -1245.610658 
1160084254.870985, 0.812150, -0.579367, -0.000000, -0.000000, 4.819554, -1176.777621 
1170089520.800421, 0.792861, -0.605099, -0.000000, -0.000000, 4.813006, -1114.573783 
1180094786.729858, 0.772780, -0.630193, -0.000000, -0.000000, 4.758175, -1058.054741 
1190100052.659294, 0.751927, -0.654625, -0.000000, 0.000000, 4.666715, -1006.447073 
1200105318.588731, 0.730324, -0.678376, -0.000000, 0.000000, 4.547574, -959.111321 
1210110584.518167, 0.707990, -0.701424, -0.000000, 0.000000, 4.407695, -915.514190 
1220115850.447604, 0.684948, -0.723749, -0.000000, 0.000000, 4.252518, -875.207402 
1230121116.377041, 0.661219, -0.745331, -0.000000, 0.000000, 4.086341, -837.811399 
1240126382.306477, 0.636826, -0.766150, -0.000000, 0.000000, 3.912585, -803.002665 
1250131648.235914, 0.611791, -0.786188, -0.000000, 0.000000, 3.733992, -770.503753 
1260136914.165350, 0.586138, -0.805425, -0.000000, 0.000000, 3.552773, -740.075365 
1270142180.094787, 0.559889, -0.823844, -0.000000, 0.000000, 3.370718, -711.510014 
1280147446.024223, 0.533068, -0.841427, -0.000000, 0.000000, 3.189283, -684.626907 
1290152711.953660, 0.505700, -0.858156, -0.000000, 0.000000, 3.009656, -659.267788 
1300157977.883096, 0.477810, -0.874015, -0.000000, 0.000000, 2.832805, -635.293527 
1310163243.812533, 0.449424, -0.888988, -0.000000, 0.000000, 2.659523, -612.581320 
1320168509.741970, 0.420567, -0.903057, -0.000000, 0.000000, 2.490454, -591.022355 
1330173775.671406, 0.391266, -0.916209, -0.000000, 0.000000, 2.326120, -570.519878 
1340179041.600842, 0.361549, -0.928429, -0.000000, 0.000000, 2.166944, -550.987562 
1350184307.530279, 0.331442, -0.939701, -0.000000, 0.000000, 2.013262, -532.348136 
1360189573.459716, 0.300975, -0.950013, -0.000000, 0.000000, 1.865337, -514.532231 
1370194839.389152, 0.270177, -0.959353, -0.000000, 0.000000, 1.723371, -497.477385 
1380200105.318589, 0.239078, -0.967706, -0.000000, 0.000000, 1.587511, -481.127205 
1390205371.248025, 0.207707, -0.975064, -0.000000, 0.000000, 1.457858, -465.430642 
1400210637.177462, 0.176097, -0.981414, -0.000000, 0.000000, 1.334476, -450.341372 
1410215903.106898, 0.144277, -0.986748, -0.000000, 0.000000, 1.217390, -435.817254 
1420221169.036335, 0.112281, -0.991057, -0.000000, 0.000000, 1.106595, -421.819864 
1430226434.965771, 0.080141, -0.994332, -0.000000, 0.000000, 1.002060, -408.314095 
1440231700.895208, 0.047891, -0.996569, -0.000000, 0.000000, 0.903729, -395.267796 
1450236966.824645, 0.015564, -0.997760, -0.000000, 0.000000, 0.811525, -382.651464 
1460242232.754081, -0.016806, -0.997903, -0.000000, 0.000000, 0.725350, -370.437975 
1470247498.683518, -0.049185, -0.996992, -0.000000, 0.000000, 0.645092, -358.602341 
1480252764.612954, -0.081537, -0.995028, -0.000000, 0.000000, 0.570621, -347.121499 
1490258030.542391, -0.113827, -0.992008, -0.000000, 0.000000, 0.501797, -335.974124 
1500263296.471827, -0.146020, -0.987934, -0.000000, 0.000000, 0.438464, -325.140465 
1510268562.401264, -0.178081, -0.982807, -0.000000, 0.000000, 0.380458, -314.602193 
1520273828.330700, -0.209974, -0.976631, 0.000000, 0.000000, 0.327606, -304.342273 
1530279094.260137, -0.241663, -0.969410, 0.000000, 0.000000, 0.279727, -294.344844 
1540284360.189574, -0.273113, -0.961151, 0.000000, 0.000000, 0.236631, -284.595116 
1550289626.119010, -0.304289, -0.951860, 0.000000, 0.000000, 0.198124, -275.079273 
1560294892.048447, -0.335154, -0.941546, 0.000000, 0.000000, 0.164008, -265.784390 
1570300157.977883, -0.365675, -0.930220, 0.000000, 0.000000, 0.134079, -256.698354 
1580305423.907320, -0.395817, -0.917893, 0.000000, 0.000000, 0.108131, -247.809800 
1590310689.836756, -0.425545, -0.904578, 0.000000, 0.000000, 0.085956, -239.108042 
1600315955.766193, -0.454826, -0.890288, 0.000000, 0.000000, 0.067345, -230.583022 
1610321221.695629, -0.483627, -0.875040, 0.000000, 0.000000, 0.052088, -222.225257 
1620326487.625066, -0.511915, -0.858850, 0.000000, 0.000000, 0.039975, -214.025791 
1630331753.554502, -0.539658, -0.841735, 0.000000, 0.000000, 0.030796, -205.976153 
1640337019.483939, -0.566825, -0.823715, 0.000000, 0.000000, 0.024344, -198.068323 
1650342285.413375, -0.593386, -0.804811, 0.000000, 0.000000, 0.020413, -190.294690 
1660347551.342812, -0.619311, -0.785043, 0.000000, 0.000000, 0.018801, -182.648023 
1670352817.272249, -0.644572, -0.764433, 0.000000, 0.000000, 0.019308, -175.121442 
1680358083.201685, -0.669141, -0.743006, 0.000000, 0.000000, 0.021739, -167.708392 
1690363349.131122, -0.692990, -0.720785, 0.000000, 0.000000, 0.025902, -160.402613 
1700368615.060558, -0.716096, -0.697796, 0.000000, 0.000000, 0.031610, -153.198124 
1710373880.989995, -0.738432, -0.674064, 0.000000, 0.000000, 0.038682, -146.089198 
1720379146.919431, -0.759974, -0.649616, 0.000000, 0.000000, 0.046943, -139.070341 
1730384412.848868, -0.780701, -0.624479, 0.000000, 0.000000, 0.056223, -132.136278 
1740389678.778304, -0.800590, -0.598683, 0.000000, 0.000000, 0.066357, -125.281934 
1750394944.707741, -0.819622, -0.572254, 0.000000, 0.000000, 0.077190, -118.502419 
1760400210.637177, -0.837775, -0.545224, 0.000000, 0.000000, 0.088572, -111.793013 
1770405476.566614, -0.855033, -0.517621, -0.000000, 0.000000, 0.100360, -105.149155 
1780410742.496051, -0.871377, -0.489475, -0.000000, 0.000000, 0.112419, -98.566427 
1790416008.425487, -0.886791, -0.460818, -0.000000, 0.000000, 0.124622, -92.040543 
1800421274.354924, -0.901261, -0.431680, -0.000000, 0.000000, 0.136849, -85.567342 
1810426540.284360, -0.914772, -0.402093, -0.000000, 0.000000, 0.148989, -79.142772 
1820431806.213797, -0.927310, -0.372088, -0.000000, 0.000000, 0.160939, -72.762882 
1830437072.143233, -0.938865, -0.341698, -0.000000, 0.000000, 0.172603, -66.423817 
1840442338.072670, -0.949424, -0.310954, -0.000000, 0.000000, 0.183895, -60.121802 
1850447604.002106, -0.958978, -0.279889, -0.000000, 0.000000, 0.194737, -53.853138 
1860452869.931543, -0.967517, -0.248536, -0.000000, 0.000000, 0.205058, -47.614196 
1870458135.860980, -0.975034, -0.216926, -0.000000, 0.000000, 0.214797, -41.401403 
1880463401.790416, -0.981522, -0.185094, -0.000000, 0.000000, 0.223901, -35.211240 
1890468667.719852, -0.986975, -0.153072, -0.000000, 0.000000, 0.232324, -29.040233 
1900473933.649289, -0.991387, -0.120892, -0.000000, 0.000000, 0.240032, -22.884945 
1910479199.578726, -0.994755, -0.088589, -0.000000, 0.000000, 0.246994, -16.741971 
1920484465.508162, -0.997075, -0.056196, -0.000000, 0.000000, 0.253191, -10.607930 
1930489731.437599, -0.998346, -0.023745, -0.000000, 0.000000, 0.258612, -4.479460 
1940494997.367035, -0.998565, 0.008730, -0.000000, 0.000000, 0.263251, 1.646791 
1950500263.296472, -0.997733, 0.041196, -0.000000, 0.000000, 0.267112, 7.774170 
1960505529.225908, -0.995851, 0.073619, -0.000000, 0.000000, 0.270207, 13.906023 
1970510795.155345, -0.992920, 0.105966, -0.000000, 0.000000, 0.272553, 20.045707 
1980516061.084782, -0.988942, 0.138204, -0.000000, 0.000000, 0.274176, 26.196593 
1990521327.014218, -0.983922, 0.170300, -0.000000, 0.000000, 0.275108, 32.362073 
2000526592.943655, -0.977864, 0.202220, -0.000000, 0.000000, 0.275390, 38.545566 
2010531858.873091, -0.970773, 0.233931, -0.000000, 0.000000, 0.275066, 44.750527 
2020537124.802528, -0.962657, 0.265401, -0.000000, 0.000000, 0.274189, 50.980453 
2030542390.731964, -0.953522, 0.296596, -0.000000, 0.000000, 0.272817, 57.238892 
2040547656.661401, -0.943377, 0.327484, -0.000000, 0.000000, 0.271013, 63.529445 
2050552922.590837, -0.932232, 0.358032, -0.000000, 0.000000, 0.268848, 69.855784 
2060558188.520274, -0.920098, 0.388208, -0.000000, 0.000000, 0.266396, 76.221649 
2070563454.449710, -0.906986, 0.417980, -0.000000, 0.000000, 0.263736, 82.630866 
2080568720.379147, -0.892910, 0.447317, 0.000000, 0.000000, 0.260952, 89.087349 
2090573986.308583, -0.877881, 0.476186, 0.000000, 0.000000, 0.258135, 95.595115 
2100579252.238020, -0.861917, 0.504556, 0.000000, 0.000000, 0.255376, 102.158292 
2110584518.167457, -0.845032, 0.532397, 0.000000, 0.000000, 0.252772, 108.781129 
2120589784.096893, -0.827243, 0.559679, 0.000000, 0.000000, 0.250424, 115.468008 
2130595050.026330, -0.808569, 0.586372, 0.000000, 0.000000, 0.248436, 122.223457 
2140600315.955766, -0.789029, 0.612446, 0.000000, 0.000000, 0.246914, 129.052164 
2150605581.885203, -0.768642, 0.637873, 0.000000, 0.000000, 0.245969, 135.958985 
2160610847.814639, -0.747430, 0.662624, 0.000000, 0.000000, 0.245713, 142.948968 
2170616113.744076, -0.725414, 0.686673, 0.000000, 0.000000, 0.246261, 150.027361 
2180621379.673512, -0.702619, 0.709992, 0.000000, 0.000000, 0.247730, 157.199633 
2190626645.602949, -0.679068, 0.732555, 0.000000, 0.000000, 0.250240, 164.471495 
2200631911.532386, -0.654786, 0.754338, 0.000000, 0.000000, 0.253911, 171.848913 
2210637177.461822, -0.629800, 0.775315, 0.000000, 0.000000, 0.258866, 179.338135 
2220642443.391258, -0.604135, 0.795464, 0.000000, 0.000000, 0.265230, 186.945715 
2230647709.320695, -0.577821, 0.814762, 0.000000, 0.000000, 0.273128, 194.678534 
2240652975.250132, -0.550884, 0.833187, 0.000000, 0.000000, 0.282688, 202.543832 
2250658241.179568, -0.523356, 0.850719, 0.000000, 0.000000, 0.294039, 210.549237 
2260663507.109005, -0.495265, 0.867338, 0.000000, 0.000000, 0.307312, 218.702795 
2270668773.038442, -0.466643, 0.883026, 0.000000, 0.000000, 0.322637, 227.013011 
2280674038.967878, -0.437521, 0.897765, 0.000000, 0.000000, 0.340149, 235.488884 
2290679304.897314, -0.407931, 0.911539, 0.000000, 0.000000, 0.359984, 244.139952 
2300684570.826751, -0.377906, 0.924334, 0.000000, 0.000000, 0.382277, 252.976338 
2310689836.756187, -0.347479, 0.936135, 0.000000, 0.000000, 0.407171, 262.008805 
2320695102.685624, -0.316683, 0.946930, 0.000000, 0.000000, 0.434806, 271.248809 
2330700368.615061, -0.285552, 0.956707, 0.000000, 0.000000, 0.465329, 280.708567 
2340705634.544497, -0.254120, 0.965456, 0.000000, 0.000000, 0.498890, 290.401121 
2350710900.473934, -0.222423, 0.973168, 0.000000, 0.000000, 0.535643, 300.340421 
2360716166.403370, -0.190494, 0.979836, 0.000000, 0.000000, 0.575747, 310.541409 
2370721432.332807, -0.158369, 0.985452, 0.000000, 0.000000, 0.619367, 321.020114 
2380726698.262243, -0.126083, 0.990012, 0.000000, 0.000000, 0.666678, 331.793758 
2390731964.191680, -0.093671, 0.993512, 0.000000, 0.000000, 0.717860, 342.880876 
2400737230.121117, -0.061168, 0.995948, 0.000000, 0.000000, 0.773106, 354.301452 
2410742496.050553, -0.028609, 0.997319, 0.000000, 0.000000, 0.832619, 366.077063 
2420747761.979990, 0.003970, 0.997624, 0.000000, 0.000000, 0.896617, 378.231049 
2430753027.909426, 0.036535, 0.996865, 0.000000, 0.000000, 0.965333, 390.788705 
2440758293.838862, 0.069050, 0.995043, 0.000000, 0.000000, 1.039021, 403.777494 
2450763559.768299, 0.101482, 0.992161, 0.000000, 0.000000, 1.117956, 417.227287 
2460768825.697736, 0.133796, 0.988224, 0.000000, -0.000000, 1.202438, 431.170640 
2470774091.627172, 0.165956, 0.983236, 0.000000, -0.000000, 1.292798, 445.643109 
2480779357.556609, 0.197931, 0.977205, 0.000000, -0.000000, 1.389404, 460.683607 
2490784623.486045, 0.229686, 0.970136, 0.000000, -0.000000, 1.492661, 476.334819 
2500789889.415482, 0.261187, 0.962040, 0.000000, -0.000000, 1.603026, 492.643668 
2510795155.344918, 0.292403, 0.952924, 0.000000, -0.000000, 1.721009, 509.661865 
2520800421.274355, 0.323300, 0.942801, 0.000000, -0.000000, 1.847187, 527.446541 
2530805687.203792, 0.353848, 0.931680, 0.000000, -0.000000, 1.982216, 546.060979 
2540810953.133228, 0.384013, 0.919575, 0.000000, -0.000000, 2.126841, 565.575471 
2550816219.062665, 0.413765, 0.906498, 0.000000, -0.000000, 2.281913, 586.068320 
2560821484.992101, 0.443074, 0.892465, 0.000000, -0.000000, 2.448414, 607.627023 
2570826750.921537, 0.471909, 0.877489, 0.000000, -0.000000, 2.627474, 630.349663 
2580832016.850974, 0.500241, 0.861587, 0.000000, -0.000000, 2.820405, 654.346567 
2590837282.780411, 0.528041, 0.844775, 0.000000, -0.000000, 3.028734, 679.742284 
2600842548.709847, 0.555280, 0.827072, 0.000000, -0.000000, 3.254251, 706.677956 
2610847814.639284, 0.581930, 0.808495, 0.000000, -0.000000, 3.499059, 735.314187 
2620853080.568720, 0.607963, 0.789063, 0.000000, -0.000000, 3.765645, 765.834518 
2630858346.498157, 0.633354, 0.768798, 0.000000, 0.000000, 4.056969, 798.449684 
2640863612.427593, 0.658076, 0.747718, 0.000000, 0.000000, 4.376569, 833.402846 
2650868878.357030, 0.682103, 0.725847, 0.000000, 0.000000, 4.728708, 870.976089 
2660874144.286467, 0.705410, 0.703206, 0.000000, 0.000000, 5.118551, 911.498543 
2670879410.215903, 0.727973, 0.679818, 0.000000, 0.000000, 5.552409, 955.356617 
2680884676.145340, 0.749769, 0.655708, 0.000000, 0.000000, 6.038052, 1003.007048 
2690889942.074776, 0.770773, 0.630898, 0.000000, 0.000000, 6.585136, 1054.993658 
2700895208.004213, 0.790965, 0.605416, 0.000000, 0.000000, 7.205769, 1111.969171 
2710900473.933649, 0.810322, 0.579286, 0.000000, 0.000000, 7.915311, 1174.723914 
2720905739.863086, 0.828823, 0.552535, 0.000000, 0.000000, 8.733467, 1244.224108 
2730911005.792522, 0.846450, 0.525191, 0.000000, 0.000000, 9.685855, 1321.663699 
2740916271.721959, 0.863181, 0.497281, 0.000000, 0.000000, 10.806280, 1408.535660 
2750921537.651396, 0.878999, 0.468834, 0.000000, 0.000000, 12.140078, 1506.731879 
2760926803.580832, 0.893887, 0.439878, 0.000000, 0.000000, 13.749207, 1618.685942 
2770932069.510269, 0.907827, 0.410445, 0.000000, 0.000000, 15.720148, 1747.581978 
2780937335.439705, 0.920804, 0.380564, 0.000000, 0.000000, 18.176591, 1897.668187 
2790942601.369142, 0.932803, 0.350267, 0.000000, 0.000000, 21.300516, 2074.741854 
2800947867.298578, 0.943809, 0.319584, 0.000000, 0.000000, 25.368687, 2286.926231 
2810953133.228015, 0.953810, 0.288549, 0.000000, 0.000000, 30.818960, 2545.967028 
2820958399.157452, 0.962794, 0.257193, 0.000000, 0.000000, 38.377932, 2869.504776 
2830963665.086888, 0.970750, 0.225549, 0.000000, 0.000000, 49.324654, 3285.302757 
2840968931.016325, 0.977667, 0.193652, 0.000000, 0.000000, 66.085794, 3839.722186 
2850974196.945761, 0.983538, 0.161535, 0.000000, 0.000000, 93.741446, 4616.421260 
2860979462.875197, 0.988353, 0.129233, 0.000000, 0.000000, 144.471211, 5783.278091 
2870984728.804634, 0.992108, 0.096780, 0.000000, 0.000000, 253.961519, 7733.877111 
2880989994.734071, 0.994795, 0.064211, 0.000000, 0.000000, 568.178491, 11657.582420 
2890995260.663507, 0.996412, 0.031561, 0.000000, 0.000000, 2302.556192, 23568.349532 
2901000526.592944, 0.996955, -0.001133, 0.000000, 0.000000, 216944.343911, -80872.492332 
2911005792.522380, 0.996421, -0.033837, 0.000000, 0.000000, 1952.192210, -22020.924986 
2921011058.451817, 0.994812, -0.066515, 0.000000, 0.000000, 501.537363, -11259.220828 
2931016324.381253, 0.992126, -0.099130, 0.000000, 0.000000, 223.232765, -7553.081495 
2941021590.310690, 0.988366, -0.131647, 0.000000, 0.000000, 125.136158, -5678.992318 
2951026856.240127, 0.983535, -0.164030, 0.000000, 0.000000, 79.741414, -4547.617597 
2961032122.169563, 0.977638, -0.196243, 0.000000, -0.000000, 55.165055, -3790.216089 
2971037388.099000, 0.970680, -0.228250, 0.000000, -0.000000, 40.421558, -3247.445091 
2981042654.028436, 0.962668, -0.260016, 0.000000, -0.000000, 30.911894, -2839.216777 
2991047919.957872, 0.953610, -0.291506, 0.000000, -0.000000, 24.437964, -2520.877020 
3001053185.887309, 0.943516, -0.322684, 0.000000, -0.000000, 19.842752, -2265.562111 
3011058451.816746, 0.932396, -0.353516, 0.000000, -0.000000, 16.470688, -2056.142056 
3021063717.746182, 0.920263, -0.383967, 0.000000, -0.000000, 13.928077, -1881.178352 
3031068983.675619, 0.907129, -0.414004, 0.000000, -0.000000, 11.967075, -1732.741575 
3041074249.605055, 0.893008, -0.443592, 0.000000, -0.000000, 10.425447, -1605.161622 
3051079515.534492, 0.877917, -0.472700, 0.000000, -0.000000, 9.193452, -1494.276535 
3061084781.463928, 0.861871, -0.501295, 0.000000, -0.000000, 8.194746, -1396.962335 
3071090047.393365, 0.844889, -0.529345, 0.000000, -0.000000, 7.374920, -1310.828413 
3081095313.322802, 0.826989, -0.556820, 0.000000, -0.000000, 6.694370, -1234.014241 
3091100579.252238, 0.808191, -0.583688, 0.000000, -0.000000, 6.123728, -1165.050154 
3101105845.181675, 0.788517, -0.609920, 0.000000, -0.000000, 5.640858, -1102.759816 
3111111111.111111, 0.767987, -0.635487, 0.000000, -0.000000, 5.228825, -1046.190504 
3121116377.040547, 0.746625, -0.660362, 0.000000, -0.000000, 4.874505, -994.562370 
3131121642.969984, 0.724455, -0.684517, 0.000000, -0.000000, 4.567608, -947.230919 
3141126908.899421, 0.701501, -0.707925, 0.000000, -0.000000, 4.299974, -903.658857 
3151132174.828857, 0.677790, -0.730563, 0.000000, -0.000000, 4.065076, -863.394680 
3161137440.758294, 0.653346, -0.752404, 0.000000, -0.000000, 3.857642, -826.056196 
3171142706.687730, 0.628198, -0.773425, 0.000000, -0.000000, 3.673382, -791.317711 
3181147972.617167, 0.602373, -0.793605, 0.000000, -0.000000, 3.508781, -758.899951 
3191153238.546604, 0.575899, -0.812921, 0.000000, -0.000000, 3.360937, -728.562068 
3201158504.476040, 0.548806, -0.831352, 0.000000, -0.000000, 3.227442, -700.095243 
3211163770.405477, 0.521124, -0.848880, 0.000000, -0.000000, 3.106286, -673.317526 
3221169036.334913, 0.492883, -0.865485, 0.000000, -0.000000, 2.995784, -648.069643 
3231174302.264350, 0.464114, -0.881151, 0.000000, -0.000000, 2.894514, -624.211561 
3241179568.193786, 0.434847, -0.895860, 0.000000, -0.000000, 2.801277, -601.619664 
3251184834.123223, 0.405116, -0.909598, 0.000000, -0.000000, 2.715053, -580.184408 
3261190100.052660, 0.374952, -0.922349, 0.000000, -0.000000, 2.634974, -559.808369 
3271195365.982096, 0.344388, -0.934102, 0.000000, -0.000000, 2.560299, -540.404605 
