# stacked metamaterial geometry 
# f [Hz], L [0.001 m]
# Unitcell size lx, ly, lz = 10, 10, 99.9308 at center position x = 0 y = 0 z = 0
# Definition of material properties: 
#name =copper,type =const,Kappa =56000000,
#name =FR4,Epsilon =4.4,Kappa =0.048957,type =const,
#name =copperSquares,type =const,Kappa =56000000,
#name =air,type =const,Epsilon =1,
## layer number 1:
# rect patch made of copper. lx, ly, lz = 10, 10, 0.5 at center position x = 0 y = 0 z = -0.25
# background material (if any) is air
# layer number 2:
# rect patch made of FR4. lx, ly, lz = 10, 10, 0.4 at center position x = 0 y = 0 z = -0.7
# background material (if any) is air
# layer number 3:
# square patch made of copperSquares lx, ly, lz = 9, 9, 0.05 at center position x = 0 y = 0 z = -0.925# with circular hole of radius 3.15
# Re/Im parts of the scattering parameters S11 (refl.) and S21 (transm.) and the real and imaginary part of the impedance as a function of frequency 
# first column is frequency, second and third columns are Re/Im of S11 and S21, respectively.
1000000000.000000, 1.000929, -0.093272, -0.000000, 0.000000, -457.153657, -8077.317331 
1010005265.929437, 0.997380, -0.127348, -0.000000, 0.000000, -255.047077, -5914.036078 
1020010531.858873, 0.992153, -0.161179, -0.000000, 0.000000, -149.694591, -4663.611571 
1030015797.788310, 0.985334, -0.194525, -0.000000, -0.000000, -86.355919, -3851.440086 
1040021063.717746, 0.977072, -0.227185, -0.000000, -0.000000, -45.399310, -3283.067869 
1050026329.647183, 0.967566, -0.259020, -0.000000, -0.000000, -18.106721, -2863.981570 
1060031595.576619, 0.957036, -0.289963, -0.000000, -0.000000, 0.013240, -2542.646785 
1070036861.506056, 0.945702, -0.320021, -0.000000, -0.000000, 11.565058, -2288.525016 
1080042127.435492, 0.933754, -0.349268, -0.000000, -0.000000, 18.226886, -2082.342341 
1090047393.364929, 0.921339, -0.377831, -0.000000, -0.000000, 21.191839, -1911.326282 
1100052659.294365, 0.908539, -0.405871, -0.000000, -0.000000, 21.385737, -1766.688424 
1110057925.223802, 0.895371, -0.433559, -0.000000, 0.000000, 19.576892, -1642.210215 
1120063191.153239, 0.881788, -0.461054, -0.000000, 0.000000, 16.428463, -1533.406358 
1130068457.082675, 0.867682, -0.488485, -0.000000, 0.000000, 12.518448, -1437.005368 
1140073723.012112, 0.852904, -0.515928, -0.000000, 0.000000, 8.341856, -1350.610419 
1150078988.941548, 0.837281, -0.543400, -0.000000, 0.000000, 4.304917, -1272.465700 
1160084254.870985, 0.820636, -0.570854, -0.000000, 0.000000, 0.718364, -1201.286799 
1170089520.800421, 0.802812, -0.598177, -0.000000, 0.000000, -2.205523, -1136.132355 
1180094786.729858, 0.783691, -0.625205, -0.000000, 0.000000, -4.349757, -1076.304834 
1190100052.659294, 0.763213, -0.651736, -0.000000, 0.000000, -5.683154, -1021.273931 
1200105318.588731, 0.741379, -0.677552, -0.000000, 0.000000, -6.245845, -970.618740 
1210110584.518167, 0.718260, -0.702443, -0.000000, 0.000000, -6.131953, -923.985803 
1220115850.447604, 0.693985, -0.726227, -0.000000, 0.000000, -5.471656, -881.060253 
1230121116.377041, 0.668732, -0.748768, -0.000000, 0.000000, -4.414419, -841.547365 
1240126382.306477, 0.642704, -0.769993, -0.000000, -0.000000, -3.114524, -805.161886 
1250131648.235914, 0.616111, -0.789891, -0.000000, -0.000000, -1.719370, -771.622934 
1260136914.165350, 0.589147, -0.808513, -0.000000, -0.000000, -0.360550, -740.652650 
1270142180.094787, 0.561968, -0.825963, -0.000000, -0.000000, 0.852534, -711.977333 
1280147446.024223, 0.534683, -0.842377, -0.000000, -0.000000, 1.836859, -685.330173 
1290152711.953660, 0.507343, -0.857910, -0.000000, 0.000000, 2.538019, -660.455006 
1300157977.883096, 0.479942, -0.872712, -0.000000, 0.000000, 2.930684, -637.110677 
1310163243.812533, 0.452421, -0.886912, -0.000000, 0.000000, 3.017354, -615.075630 
1320168509.741970, 0.424680, -0.900601, -0.000000, 0.000000, 2.825451, -594.152322 
1330173775.671406, 0.396593, -0.913819, -0.000000, 0.000000, 2.402865, -574.170972 
1340179041.600842, 0.368026, -0.926556, -0.000000, 0.000000, 1.812218, -554.992173 
1350184307.530279, 0.338856, -0.938745, -0.000000, 0.000000, 1.124248, -536.507932 
1360189573.459716, 0.308988, -0.950274, -0.000000, 0.000000, 0.410943, -518.640866 
1370194839.389152, 0.278366, -0.960996, -0.000000, 0.000000, -0.260953, -501.341534 
1380200105.318589, 0.246989, -0.970744, -0.000000, 0.000000, -0.835375, -484.584134 
1390205371.248025, 0.214908, -0.979351, -0.000000, 0.000000, -1.270868, -468.361029 
1400210637.177462, 0.182229, -0.986670, 0.000000, 0.000000, -1.542716, -452.676695 
1410215903.106898, 0.149097, -0.992585, 0.000000, 0.000000, -1.643281, -437.541715 
1420221169.036335, 0.115688, -0.997030, -0.000000, 0.000000, -1.580752, -422.967356 
1430226434.965771, 0.082189, -0.999989, -0.000000, 0.000000, -1.376658, -408.961115 
1440231700.895208, 0.048777, -1.001500, -0.000000, 0.000000, -1.062570, -395.523442 
1450236966.824645, 0.015609, -1.001647, -0.000000, 0.000000, -0.676394, -382.645704 
1460242232.754081, -0.017200, -1.000551, -0.000000, 0.000000, -0.258613, -370.309327 
1470247498.683518, -0.049577, -0.998348, -0.000000, 0.000000, 0.151246, -358.485980 
1480252764.612954, -0.081500, -0.995183, -0.000000, 0.000000, 0.517726, -347.138632 
1490258030.542391, -0.112991, -0.991184, -0.000000, 0.000000, 0.811964, -336.223327 
1500263296.471827, -0.144110, -0.986455, -0.000000, 0.000000, 1.013545, -325.691465 
1510268562.401264, -0.174944, -0.981061, -0.000000, 0.000000, 1.111581, -315.492429 
1520273828.330700, -0.205591, -0.975029, -0.000000, 0.000000, 1.104996, -305.576341 
1530279094.260137, -0.236147, -0.968337, -0.000000, 0.000000, 1.001988, -295.896745 
1540284360.189574, -0.266692, -0.960928, -0.000000, 0.000000, 0.818739, -286.412978 
1550289626.119010, -0.297275, -0.952710, -0.000000, 0.000000, 0.577484, -277.092035 
1560294892.048447, -0.327909, -0.943575, -0.000000, 0.000000, 0.304133, -267.909742 
1570300157.977883, -0.358564, -0.933406, -0.000000, 0.000000, 0.025678, -258.851144 
1580305423.907320, -0.389169, -0.922097, 0.000000, 0.000000, -0.232346, -249.910087 
1590310689.836756, -0.419614, -0.909563, 0.000000, 0.000000, -0.448086, -241.088074 
1600315955.766193, -0.449767, -0.895753, 0.000000, 0.000000, -0.605090, -232.392550 
1610321221.695629, -0.479479, -0.880656, 0.000000, 0.000000, -0.693378, -223.834836 
1620326487.625066, -0.508603, -0.864303, 0.000000, 0.000000, -0.709829, -215.427939 
1630331753.554502, -0.537004, -0.846761, 0.000000, 0.000000, -0.657914, -207.184452 
1640337019.483939, -0.564574, -0.828133, -0.000000, 0.000000, -0.546874, -199.114730 
1650342285.413375, -0.591240, -0.808540, -0.000000, 0.000000, -0.390474, -191.225461 
1660347551.342812, -0.616965, -0.788111, -0.000000, 0.000000, -0.205494, -183.518702 
1670352817.272249, -0.641749, -0.766972, -0.000000, 0.000000, -0.010092, -175.991412 
1680358083.201685, -0.665626, -0.745232, -0.000000, 0.000000, 0.177820, -168.635457 
1690363349.131122, -0.688655, -0.722974, -0.000000, 0.000000, 0.342068, -161.438048 
1700368615.060558, -0.710908, -0.700251, -0.000000, 0.000000, 0.469482, -154.382554 
1710373880.989995, -0.732461, -0.677084, -0.000000, 0.000000, 0.550848, -147.449611 
1720379146.919431, -0.753383, -0.653460, -0.000000, 0.000000, 0.581499, -140.618420 
1730384412.848868, -0.773725, -0.629342, -0.000000, 0.000000, 0.561491, -133.868138 
1740389678.778304, -0.793512, -0.604672, -0.000000, 0.000000, 0.495367, -127.179245 
1750394944.707741, -0.812742, -0.579385, -0.000000, 0.000000, 0.391542, -120.534749 
1760400210.637177, -0.831380, -0.553416, 0.000000, 0.000000, 0.261350, -113.921146 
1770405476.566614, -0.849363, -0.526712, 0.000000, 0.000000, 0.117874, -107.329027 
1780410742.496051, -0.866607, -0.499242, 0.000000, 0.000000, -0.025330, -100.753298 
1790416008.425487, -0.883014, -0.471000, 0.000000, 0.000000, -0.155492, -94.193000 
1800421274.354924, -0.898480, -0.442011, 0.000000, 0.000000, -0.261731, -87.650762 
1810426540.284360, -0.912907, -0.412328, 0.000000, 0.000000, -0.335922, -81.131979 
1820431806.213797, -0.926214, -0.382031, 0.000000, 0.000000, -0.373241, -74.643794 
1830437072.143233, -0.938340, -0.351217, 0.000000, 0.000000, -0.372379, -68.194018 
1840442338.072670, -0.949251, -0.319995, 0.000000, 0.000000, -0.335434, -61.790070 
1850447604.002106, -0.958940, -0.288474, -0.000000, 0.000000, -0.267508, -55.438043 
1860452869.931543, -0.967427, -0.256758, -0.000000, 0.000000, -0.176086, -49.141956 
1870458135.860980, -0.974752, -0.224933, -0.000000, 0.000000, -0.070260, -42.903238 
1880463401.790416, -0.980970, -0.193068, -0.000000, 0.000000, 0.040130, -36.720461 
1890468667.719852, -0.986144, -0.161207, -0.000000, 0.000000, 0.145358, -30.589325 
1900473933.649289, -0.990335, -0.129372, -0.000000, 0.000000, 0.236624, -24.502881 
1910479199.578726, -0.993598, -0.097566, -0.000000, 0.000000, 0.306746, -18.451960 
1920484465.508162, -0.995973, -0.065772, -0.000000, 0.000000, 0.350693, -12.425769 
1930489731.437599, -0.997482, -0.033968, -0.000000, 0.000000, 0.365915, -6.412598 
1940494997.367035, -0.998128, -0.002123, 0.000000, 0.000000, 0.352449, -0.400583 
1950500263.296472, -0.997897, 0.029788, 0.000000, 0.000000, 0.312806, 5.621552 
1960505529.225908, -0.996754, 0.061780, 0.000000, 0.000000, 0.251635, 11.663824 
1970510795.155345, -0.994654, 0.093854, 0.000000, 0.000000, 0.175220, 17.734466 
1980516061.084782, -0.991547, 0.125995, 0.000000, 0.000000, 0.090848, 23.839586 
1990521327.014218, -0.987379, 0.158168, 0.000000, 0.000000, 0.006125, 29.983038 
2000526592.943655, -0.982106, 0.190321, 0.000000, 0.000000, -0.071705, 36.166497 
2010531858.873091, -0.975692, 0.222386, 0.000000, 0.000000, -0.136359, 42.389739 
2020537124.802528, -0.968117, 0.254287, 0.000000, 0.000000, -0.182995, 48.651064 
2030542390.731964, -0.959378, 0.285943, 0.000000, 0.000000, -0.208526, 54.947822 
2040547656.661401, -0.949490, 0.317272, 0.000000, 0.000000, -0.211766, 61.276989 
2050552922.590837, -0.938481, 0.348201, 0.000000, 0.000000, -0.193403, 67.635732 
2060558188.520274, -0.926395, 0.378665, -0.000000, 0.000000, -0.155825, 74.021920 
2070563454.449710, -0.913281, 0.408611, -0.000000, 0.000000, -0.102824, 80.434544 
2080568720.379147, -0.899195, 0.438000, -0.000000, 0.000000, -0.039211, 86.874035 
2090573986.308583, -0.884190, 0.466809, -0.000000, 0.000000, 0.029613, 93.342449 
2100579252.238020, -0.868318, 0.495025, -0.000000, 0.000000, 0.098111, 99.843526 
2110584518.167457, -0.851622, 0.522645, 0.000000, 0.000000, 0.161034, 106.382638 
2120589784.096893, -0.834134, 0.549673, 0.000000, 0.000000, 0.213804, 112.966616 
2130595050.026330, -0.815878, 0.576115, 0.000000, 0.000000, 0.252833, 119.603504 
2140600315.955766, -0.796867, 0.601976, 0.000000, 0.000000, 0.275736, 126.302233 
2150605581.885203, -0.777106, 0.627258, 0.000000, 0.000000, 0.281450, 133.072267 
2160610847.814639, -0.756593, 0.651958, 0.000000, 0.000000, 0.270248, 139.923242 
2170616113.744076, -0.735322, 0.676061, 0.000000, 0.000000, 0.243644, 146.864628 
2180621379.673512, -0.713285, 0.699549, 0.000000, 0.000000, 0.204213, 153.905441 
2190626645.602949, -0.690477, 0.722390, 0.000000, 0.000000, 0.155344, 161.054028 
2200631911.532386, -0.666899, 0.744549, 0.000000, 0.000000, 0.100946, 168.317948 
2210637177.461822, -0.642555, 0.765983, 0.000000, 0.000000, 0.045151, 175.703924 
2220642443.391258, -0.617458, 0.786647, 0.000000, 0.000000, -0.007979, 183.217900 
2230647709.320695, -0.591631, 0.806495, 0.000000, 0.000000, -0.054705, 190.865155 
2240652975.250132, -0.565103, 0.825483, 0.000000, 0.000000, -0.091823, 198.650475 
2250658241.179568, -0.537910, 0.843568, 0.000000, 0.000000, -0.116814, 206.578361 
2260663507.109005, -0.510095, 0.860714, 0.000000, 0.000000, -0.127949, 214.653254 
2270668773.038442, -0.481706, 0.876891, 0.000000, 0.000000, -0.124337, 222.879763 
2280674038.967878, -0.452792, 0.892075, 0.000000, 0.000000, -0.105947, 231.262887 
2290679304.897314, -0.423404, 0.906248, 0.000000, 0.000000, -0.073581, 239.808237 
2300684570.826751, -0.393594, 0.919400, 0.000000, 0.000000, -0.028837, 248.522240 
2310689836.756187, -0.363411, 0.931528, 0.000000, 0.000000, 0.025960, 257.412342 
2320695102.685624, -0.332900, 0.942633, 0.000000, 0.000000, 0.087843, 266.487211 
2330700368.615061, -0.302103, 0.952719, 0.000000, 0.000000, 0.153319, 275.756924 
2340705634.544497, -0.271058, 0.961797, 0.000000, 0.000000, 0.218509, 285.233162 
2350710900.473934, -0.239797, 0.969877, 0.000000, 0.000000, 0.279320, 294.929379 
2360716166.403370, -0.208345, 0.976968, 0.000000, 0.000000, 0.331657, 304.860960 
2370721432.332807, -0.176725, 0.983081, 0.000000, 0.000000, 0.371653, 315.045333 
2380726698.262243, -0.144953, 0.988223, 0.000000, 0.000000, 0.395929, 325.502046 
2390731964.191680, -0.113044, 0.992396, 0.000000, 0.000000, 0.401863, 336.252788 
2400737230.121117, -0.081009, 0.995597, 0.000000, 0.000000, 0.387838, 347.321348 
2410742496.050553, -0.048861, 0.997821, 0.000000, 0.000000, 0.353474, 358.733519 
2420747761.979990, -0.016614, 0.999053, 0.000000, 0.000000, 0.299800, 370.516949 
2430753027.909426, 0.015715, 0.999277, 0.000000, 0.000000, 0.229362, 382.700957 
2440758293.838862, 0.048103, 0.998473, 0.000000, 0.000000, 0.146239, 395.316330 
2450763559.768299, 0.080521, 0.996616, 0.000000, 0.000000, 0.055962, 408.395114 
2460768825.697736, 0.112932, 0.993685, 0.000000, 0.000000, -0.034683, 421.970453 
2470774091.627172, 0.145293, 0.989659, 0.000000, 0.000000, -0.117962, 436.076477 
2480779357.556609, 0.177553, 0.984523, 0.000000, 0.000000, -0.185629, 450.748297 
2490784623.486045, 0.209655, 0.978268, 0.000000, 0.000000, -0.229460, 466.022138 
2500789889.415482, 0.241538, 0.970893, 0.000000, 0.000000, -0.241895, 481.935663 
2510795155.344918, 0.273142, 0.962409, 0.000000, 0.000000, -0.216742, 498.528528 
2520800421.274355, 0.304405, 0.952833, 0.000000, 0.000000, -0.149898, 515.843212 
2530805687.203792, 0.335271, 0.942197, 0.000000, 0.000000, -0.040048, 533.926172 
2540810953.133228, 0.365693, 0.930535, 0.000000, 0.000000, 0.110760, 552.829334 
2550816219.062665, 0.395629, 0.917892, 0.000000, 0.000000, 0.296718, 572.611918 
2560821484.992101, 0.425052, 0.904313, 0.000000, 0.000000, 0.508139, 593.342588 
2570826750.921537, 0.453942, 0.889843, 0.000000, 0.000000, 0.731669, 615.101873 
2580832016.850974, 0.482292, 0.874522, 0.000000, 0.000000, 0.950873, 637.984782 
2590837282.780411, 0.510102, 0.858383, 0.000000, 0.000000, 1.147204, 662.103560 
2600842548.709847, 0.537377, 0.841452, 0.000000, -0.000000, 1.301310, 687.590523 
2610847814.639284, 0.564126, 0.823740, 0.000000, -0.000000, 1.394610, 714.600929 
2620853080.568720, 0.590352, 0.805250, 0.000000, -0.000000, 1.411029, 743.315937 
2630858346.498157, 0.616055, 0.785975, 0.000000, -0.000000, 1.338779, 773.945719 
2640863612.427593, 0.641225, 0.765902, 0.000000, -0.000000, 1.172069, 806.732897 
2650868878.357030, 0.665840, 0.745011, 0.000000, -0.000000, 0.912617, 841.956545 
2660874144.286467, 0.689868, 0.723287, 0.000000, 0.000000, 0.570903, 879.937071 
2670879410.215903, 0.713262, 0.700716, 0.000000, 0.000000, 0.167051, 921.042429 
2680884676.145340, 0.735967, 0.677296, 0.000000, 0.000000, -0.268706, 965.696213 
2690889942.074776, 0.757920, 0.653034, 0.000000, 0.000000, -0.696050, 1014.388382 
2700895208.004213, 0.779056, 0.627953, 0.000000, 0.000000, -1.065183, 1067.689669 
2710900473.933649, 0.799309, 0.602091, 0.000000, 0.000000, -1.318060, 1126.271094 
2720905739.863086, 0.818622, 0.575501, 0.000000, 0.000000, -1.390358, 1190.930636 
2730911005.792522, 0.836948, 0.548246, 0.000000, 0.000000, -1.214211, 1262.630001 
2740916271.721959, 0.854252, 0.520397, 0.000000, 0.000000, -0.721714, 1342.545781 
2750921537.651396, 0.870517, 0.492033, 0.000000, 0.000000, 0.150864, 1432.141367 
2760926803.580832, 0.885743, 0.463225, 0.000000, 0.000000, 1.458335, 1533.269237 
2770932069.510269, 0.899944, 0.434043, 0.000000, -0.000000, 3.241563, 1648.318587 
2780937335.439705, 0.913146, 0.404542, 0.000000, -0.000000, 5.522451, 1780.432303 
2790942601.369142, 0.925384, 0.374764, 0.000000, -0.000000, 8.299164, 1933.833181 
2800947867.298578, 0.936694, 0.344734, 0.000000, -0.000000, 11.541557, 2114.328465 
2810953133.228015, 0.947109, 0.314461, 0.000000, -0.000000, 15.186134, 2330.117623 
2820958399.157452, 0.956655, 0.283942, 0.000000, -0.000000, 19.128502, 2593.140894 
2830963665.086888, 0.965343, 0.253162, 0.000000, -0.000000, 23.208136, 2921.447270 
2840968931.016325, 0.973171, 0.222102, 0.000000, -0.000000, 27.172393, 3343.616537 
2850974196.945761, 0.980118, 0.190743, 0.000000, -0.000000, 30.584010, 3907.674282 
2860979462.875197, 0.986150, 0.159073, 0.000000, -0.000000, 32.560843, 4700.923399 
2870984728.804634, 0.991219, 0.127092, 0.000000, -0.000000, 30.935552, 5900.300248 
2880989994.734071, 0.995268, 0.094814, 0.000000, 0.000000, 18.878556, 7926.995189 
2890995260.663507, 0.998239, 0.062272, 0.000000, 0.000000, -34.793956, 12089.876849 
2901000526.592944, 1.000075, 0.029517, 0.000000, 0.000000, -441.471616, 25525.930253 
2911005792.522380, 1.000730, -0.003382, 0.000000, 0.000000, -46325.105257, -212898.702091 
2921011058.451817, 1.000171, -0.036343, 0.000000, 0.000000, -474.540919, -20731.462227 
2931016324.381253, 0.998386, -0.069277, 0.000000, 0.000000, -123.477632, -10870.127924 
2941021590.310690, 0.995380, -0.102092, 0.000000, -0.000000, -43.420472, -7365.132052 
2951026856.240127, 0.991180, -0.134699, 0.000000, -0.000000, -12.011675, -5569.754586 
2961032122.169563, 0.985830, -0.167023, 0.000000, -0.000000, 3.258802, -4478.880501 
2971037388.099000, 0.979388, -0.199001, 0.000000, -0.000000, 11.272523, -3746.031104 
2981042654.028436, 0.971920, -0.230590, 0.000000, -0.000000, 15.353517, -3219.779196 
2991047919.957872, 0.963493, -0.261770, 0.000000, -0.000000, 17.032863, -2823.407631 
3001053185.887309, 0.954166, -0.292538, 0.000000, -0.000000, 17.139938, -2513.886065 
3011058451.816746, 0.943989, -0.322907, 0.000000, -0.000000, 16.190417, -2265.211881 
3021063717.746182, 0.932995, -0.352901, 0.000000, -0.000000, 14.543866, -2060.754610 
3031068983.675619, 0.921197, -0.382551, 0.000000, -0.000000, 12.473110, -1889.395807 
3041074249.605055, 0.908590, -0.411883, 0.000000, -0.000000, 10.195766, -1743.435787 
3051079515.534492, 0.895149, -0.440916, 0.000000, -0.000000, 7.888316, -1617.389304 
3061084781.463928, 0.880839, -0.469655, 0.000000, -0.000000, 5.691976, -1507.257367 
3071090047.393365, 0.865614, -0.498085, 0.000000, -0.000000, 3.715009, -1410.067718 
3081095313.322802, 0.849426, -0.526173, 0.000000, -0.000000, 2.033942, -1323.573834 
3091100579.252238, 0.832237, -0.553863, 0.000000, -0.000000, 0.695020, -1246.051324 
3101105845.181675, 0.814015, -0.581085, 0.000000, -0.000000, -0.283523, -1176.156433 
3111111111.111111, 0.794751, -0.607753, 0.000000, -0.000000, -0.908208, -1112.825565 
3121116377.040547, 0.774453, -0.633776, 0.000000, -0.000000, -1.206211, -1055.202822 
3131121642.969984, 0.753155, -0.659062, 0.000000, -0.000000, -1.220706, -1002.587198 
3141126908.899421, 0.730909, -0.683529, 0.000000, -0.000000, -1.005979, -954.393920 
3151132174.828857, 0.707789, -0.707108, 0.000000, -0.000000, -0.622607, -910.126127 
3161137440.758294, 0.683879, -0.729748, 0.000000, -0.000000, -0.132968, -869.354206 
3171142706.687730, 0.659269, -0.751423, 0.000000, -0.000000, 0.402756, -831.700852 
3181147972.617167, 0.634048, -0.772127, 0.000000, -0.000000, 0.929966, -796.830413 
3191153238.546604, 0.608296, -0.791878, 0.000000, -0.000000, 1.402348, -764.441466 
3201158504.476040, 0.582079, -0.810707, 0.000000, -0.000000, 1.783846, -734.261820 
3211163770.405477, 0.555441, -0.828658, 0.000000, -0.000000, 2.049878, -706.045316 
3221169036.334913, 0.528407, -0.845778, 0.000000, -0.000000, 2.187785, -679.569920 
3231174302.264350, 0.500981, -0.862109, 0.000000, -0.000000, 2.196508, -654.636683 
3241179568.193786, 0.473147, -0.877685, 0.000000, -0.000000, 2.085539, -631.069193 
