# stacked metamaterial geometry 
# f [Hz], L [0.001 m]
# Unitcell size lx, ly, lz = 10, 10, 99.9308 at center position x = 0 y = 0 z = 0
# Definition of material properties: 
#name =copper,type =const,Kappa =56000000,
#name =FR4,Epsilon =4.4,Kappa =0.048957,type =const,
#name =copperSquares,type =const,Kappa =56000000,
#name =air,type =const,Epsilon =1,
## layer number 1:
# rect patch made of copper. lx, ly, lz = 10, 10, 0.5 at center position x = 0 y = 0 z = -0.25
# background material (if any) is air
# layer number 2:
# rect patch made of FR4. lx, ly, lz = 10, 10, 0.4 at center position x = 0 y = 0 z = -0.7
# background material (if any) is air
# layer number 3:
# square patch made of copperSquares lx, ly, lz = 9, 9, 0.05 at center position x = 0 y = 0 z = -0.925# with circular hole of radius 2.95
# Re/Im parts of the scattering parameters S11 (refl.) and S21 (transm.) and the real and imaginary part of the impedance as a function of frequency 
# first column is frequency, second and third columns are Re/Im of S11 and S21, respectively.
1000000000.000000, 0.998867, -0.098270, -0.000000, -0.000000, -288.362826, -7666.188333 
1010005265.929437, 0.993686, -0.131325, -0.000000, -0.000000, -101.538865, -5724.125393 
1020010531.858873, 0.987284, -0.163630, -0.000000, -0.000000, -21.034641, -4577.003759 
1030015797.788310, 0.979890, -0.195136, -0.000000, -0.000000, 17.004050, -3820.623680 
1040021063.717746, 0.971726, -0.225873, -0.000000, -0.000000, 34.388130, -3284.310219 
1050026329.647183, 0.962974, -0.255938, -0.000000, -0.000000, 40.431156, -2883.564289 
1060031595.576619, 0.953759, -0.285481, -0.000000, -0.000000, 39.839955, -2571.792825 
1070036861.506056, 0.944137, -0.314675, -0.000000, 0.000000, 35.350082, -2321.251456 
1080042127.435492, 0.934093, -0.343697, -0.000000, 0.000000, 28.740847, -2114.469192 
1090047393.364929, 0.923541, -0.372698, -0.000000, 0.000000, 21.260415, -1939.989160 
1100052659.294365, 0.912343, -0.401785, -0.000000, 0.000000, 13.810926, -1790.076637 
1110057925.223802, 0.900323, -0.431005, -0.000000, 0.000000, 7.031522, -1659.397333 
1120063191.153239, 0.887296, -0.460333, -0.000000, 0.000000, 1.340389, -1544.207157 
1130068457.082675, 0.873085, -0.489678, -0.000000, 0.000000, -3.035567, -1441.829601 
1140073723.012112, 0.857551, -0.518885, -0.000000, 0.000000, -6.031084, -1350.306231 
1150078988.941548, 0.840609, -0.547756, -0.000000, 0.000000, -7.709515, -1268.158787 
1160084254.870985, 0.822243, -0.576068, -0.000000, 0.000000, -8.227689, -1194.227338 
1170089520.800421, 0.802507, -0.603602, -0.000000, 0.000000, -7.801633, -1127.561934 
1180094786.729858, 0.781519, -0.630167, -0.000000, 0.000000, -6.676006, -1067.352041 
1190100052.659294, 0.759451, -0.655619, -0.000000, -0.000000, -5.099046, -1012.882173 
1200105318.588731, 0.736501, -0.679874, -0.000000, -0.000000, -3.303575, -963.505185 
1210110584.518167, 0.712875, -0.702919, -0.000000, -0.000000, -1.493701, -918.627049 
1220115850.447604, 0.688763, -0.724800, -0.000000, -0.000000, 0.163665, -877.698922 
1230121116.377041, 0.664314, -0.745619, -0.000000, -0.000000, 1.543447, -840.213778 
1240126382.306477, 0.639630, -0.765507, -0.000000, 0.000000, 2.564031, -805.705907 
1250131648.235914, 0.614750, -0.784615, -0.000000, 0.000000, 3.186413, -773.752218 
1260136914.165350, 0.589658, -0.803081, -0.000000, 0.000000, 3.411177, -743.974553 
1270142180.094787, 0.564284, -0.821022, -0.000000, 0.000000, 3.273452, -716.042321 
1280147446.024223, 0.538522, -0.838509, -0.000000, 0.000000, 2.836025, -689.674707 
1290152711.953660, 0.512244, -0.855565, -0.000000, 0.000000, 2.180942, -664.641723 
1300157977.883096, 0.485321, -0.872154, -0.000000, 0.000000, 1.400147, -640.763444 
1310163243.812533, 0.457640, -0.888190, -0.000000, 0.000000, 0.585977, -617.907000 
1320168509.741970, 0.429124, -0.903544, -0.000000, 0.000000, -0.177570, -595.981275 
1330173775.671406, 0.399743, -0.918058, -0.000000, 0.000000, -0.821916, -574.929625 
1340179041.600842, 0.369523, -0.931566, -0.000000, 0.000000, -1.298684, -554.721300 
1350184307.530279, 0.338542, -0.943911, -0.000000, 0.000000, -1.581860, -535.342429 
1360189573.459716, 0.306926, -0.954965, -0.000000, 0.000000, -1.667432, -516.787456 
1370194839.389152, 0.274834, -0.964645, -0.000000, 0.000000, -1.570902, -499.051753 
1380200105.318589, 0.242441, -0.972915, -0.000000, 0.000000, -1.323266, -482.125897 
1390205371.248025, 0.209919, -0.979794, -0.000000, 0.000000, -0.966122, -465.991800 
1400210637.177462, 0.177419, -0.985349, -0.000000, 0.000000, -0.546525, -450.620680 
1410215903.106898, 0.145058, -0.989680, -0.000000, 0.000000, -0.112073, -435.972665 
1420221169.036335, 0.112909, -0.992910, -0.000000, 0.000000, 0.293417, -421.997754 
1430226434.965771, 0.080998, -0.995165, -0.000000, 0.000000, 0.633404, -408.637825 
1440231700.895208, 0.049307, -0.996560, -0.000000, 0.000000, 0.881157, -395.829389 
1450236966.824645, 0.017783, -0.997183, -0.000000, 0.000000, 1.021235, -383.506781 
1460242232.754081, -0.013652, -0.997085, -0.000000, 0.000000, 1.049901, -371.605529 
1470247498.683518, -0.045086, -0.996280, -0.000000, 0.000000, 0.974499, -360.065589 
1480252764.612954, -0.076600, -0.994737, -0.000000, 0.000000, 0.811864, -348.834186 
1490258030.542391, -0.108257, -0.992390, -0.000000, 0.000000, 0.585965, -337.867998 
1500263296.471827, -0.140089, -0.989146, -0.000000, 0.000000, 0.324990, -327.134467 
1510268562.401264, -0.172089, -0.984897, -0.000000, 0.000000, 0.058219, -316.612139 
1520273828.330700, -0.204212, -0.979538, -0.000000, 0.000000, -0.187011, -306.289992 
1530279094.260137, -0.236371, -0.972974, 0.000000, 0.000000, -0.387905, -296.165892 
1540284360.189574, -0.268452, -0.965140, 0.000000, 0.000000, -0.528119, -286.244381 
1550289626.119010, -0.300323, -0.956006, 0.000000, 0.000000, -0.598841, -276.534079 
1560294892.048447, -0.331843, -0.945580, 0.000000, 0.000000, -0.598988, -267.045028 
1570300157.977883, -0.362884, -0.933910, -0.000000, 0.000000, -0.534605, -257.786233 
1580305423.907320, -0.393337, -0.921074, -0.000000, 0.000000, -0.417607, -248.763649 
1590310689.836756, -0.423124, -0.907173, -0.000000, 0.000000, -0.264085, -239.978738 
1600315955.766193, -0.452201, -0.892315, -0.000000, 0.000000, -0.092374, -231.427670 
1610321221.695629, -0.480558, -0.876609, -0.000000, 0.000000, 0.078901, -223.101156 
1620326487.625066, -0.508216, -0.860148, -0.000000, 0.000000, 0.232636, -214.984853 
1630331753.554502, -0.535220, -0.843001, -0.000000, 0.000000, 0.354762, -207.060255 
1640337019.483939, -0.561624, -0.825211, -0.000000, 0.000000, 0.435373, -199.305943 
1650342285.413375, -0.587488, -0.806788, -0.000000, 0.000000, 0.469391, -191.699062 
1660347551.342812, -0.612860, -0.787716, -0.000000, 0.000000, 0.456738, -184.216883 
1670352817.272249, -0.637771, -0.767956, -0.000000, 0.000000, 0.402020, -176.838305 
1680358083.201685, -0.662228, -0.747454, -0.000000, 0.000000, 0.313774, -169.545154 
1690363349.131122, -0.686210, -0.726152, -0.000000, 0.000000, 0.203363, -162.323158 
1700368615.060558, -0.709667, -0.703998, 0.000000, 0.000000, 0.083638, -155.162502 
1710373880.989995, -0.732528, -0.680956, 0.000000, 0.000000, -0.032477, -148.057929 
1720379146.919431, -0.754705, -0.657011, 0.000000, 0.000000, -0.133318, -141.008380 
1730384412.848868, -0.776101, -0.632174, 0.000000, 0.000000, -0.209610, -134.016247 
1740389678.778304, -0.796625, -0.606486, 0.000000, 0.000000, -0.255253, -127.086333 
1750394944.707741, -0.816194, -0.580009, 0.000000, 0.000000, -0.267724, -120.224659 
1760400210.637177, -0.834747, -0.552825, 0.000000, 0.000000, -0.248078, -113.437251 
1770405476.566614, -0.852244, -0.525027, -0.000000, 0.000000, -0.200571, -106.729047 
1780410742.496051, -0.868671, -0.496709, -0.000000, 0.000000, -0.131992, -100.103012 
1790416008.425487, -0.884039, -0.467957, -0.000000, 0.000000, -0.050793, -93.559541 
1800421274.354924, -0.898373, -0.438845, -0.000000, 0.000000, 0.033877, -87.096180 
1810426540.284360, -0.911713, -0.409427, -0.000000, 0.000000, 0.113140, -80.707652 
1820431806.213797, -0.924104, -0.379738, -0.000000, 0.000000, 0.179257, -74.386178 
1830437072.143233, -0.935586, -0.349791, -0.000000, 0.000000, 0.226327, -68.122023 
1840442338.072670, -0.946190, -0.319585, -0.000000, 0.000000, 0.250773, -61.904214 
1850447604.002106, -0.955933, -0.289105, -0.000000, 0.000000, 0.251561, -55.721348 
1860452869.931543, -0.964814, -0.258332, -0.000000, 0.000000, 0.230163, -49.562409 
1870458135.860980, -0.972814, -0.227249, 0.000000, 0.000000, 0.190262, -43.417513 
1880463401.790416, -0.979899, -0.195845, 0.000000, 0.000000, 0.137246, -37.278504 
1890468667.719852, -0.986025, -0.164125, 0.000000, 0.000000, 0.077549, -31.139356 
1900473933.649289, -0.991140, -0.132107, 0.000000, 0.000000, 0.017912, -24.996323 
1910479199.578726, -0.995193, -0.099829, 0.000000, 0.000000, -0.035352, -18.847854 
1920484465.508162, -0.998139, -0.067343, 0.000000, 0.000000, -0.077006, -12.694262 
1930489731.437599, -0.999946, -0.034714, 0.000000, 0.000000, -0.103382, -6.537229 
1940494997.367035, -1.000596, -0.002014, 0.000000, 0.000000, -0.112674, -0.379183 
1950500263.296472, -1.000087, 0.030681, 0.000000, 0.000000, -0.105009, 5.777359 
1960505529.225908, -0.998432, 0.063301, 0.000000, 0.000000, -0.082304, 11.930417 
1970510795.155345, -0.995657, 0.095783, 0.000000, 0.000000, -0.047942, 18.079072 
1980516061.084782, -0.991798, 0.128075, -0.000000, 0.000000, -0.006312, 24.223839 
1990521327.014218, -0.986893, 0.160140, -0.000000, 0.000000, 0.037721, 30.366871 
2000526592.943655, -0.980979, 0.191952, -0.000000, 0.000000, 0.079368, 36.511973 
2010531858.873091, -0.974090, 0.223497, -0.000000, 0.000000, 0.114417, 42.664450 
2020537124.802528, -0.966249, 0.254766, -0.000000, 0.000000, 0.139647, 48.830811 
2030542390.731964, -0.957472, 0.285757, -0.000000, 0.000000, 0.153114, 55.018366 
2040547656.661401, -0.947763, 0.316465, 0.000000, 0.000000, 0.154285, 61.234768 
2050552922.590837, -0.937119, 0.346884, 0.000000, 0.000000, 0.144013, 67.487545 
2060558188.520274, -0.925529, 0.376996, 0.000000, 0.000000, 0.124370, 73.783682 
2070563454.449710, -0.912980, 0.406779, 0.000000, 0.000000, 0.098339, 80.129279 
2080568720.379147, -0.899462, 0.436198, 0.000000, 0.000000, 0.069434, 86.529350 
2090573986.308583, -0.884966, 0.465213, 0.000000, 0.000000, 0.041261, 92.987747 
2100579252.238020, -0.869492, 0.493774, 0.000000, 0.000000, 0.017103, 99.507255 
2110584518.167457, -0.853051, 0.521833, 0.000000, 0.000000, -0.000451, 106.089801 
2120589784.096893, -0.835658, 0.549337, 0.000000, 0.000000, -0.009763, 112.736789 
2130595050.026330, -0.817342, 0.576239, 0.000000, 0.000000, -0.010289, 119.449481 
2140600315.955766, -0.798136, 0.602498, 0.000000, 0.000000, -0.002570, 126.229407 
2150605581.885203, -0.778076, 0.628080, 0.000000, 0.000000, 0.011897, 133.078726 
2160610847.814639, -0.757203, 0.652959, 0.000000, 0.000000, 0.030905, 140.000529 
2170616113.744076, -0.735553, 0.677115, 0.000000, 0.000000, 0.051848, 146.999023 
2180621379.673512, -0.713159, 0.700535, 0.000000, 0.000000, 0.072076, 154.079602 
2190626645.602949, -0.690051, 0.723208, 0.000000, 0.000000, 0.089226, 161.248798 
2200631911.532386, -0.666251, 0.745126, 0.000000, 0.000000, 0.101510, 168.514123 
2210637177.461822, -0.641778, 0.766277, 0.000000, 0.000000, 0.107924, 175.883826 
2220642443.391258, -0.616648, 0.786648, 0.000000, 0.000000, 0.108344, 183.366609 
2230647709.320695, -0.590874, 0.806222, 0.000000, 0.000000, 0.103514, 190.971321 
2240652975.250132, -0.564472, 0.824975, 0.000000, 0.000000, 0.094923, 198.706694 
2250658241.179568, -0.537458, 0.842881, 0.000000, 0.000000, 0.084583, 206.581130 
2260663507.109005, -0.509855, 0.859912, 0.000000, 0.000000, 0.074738, 214.602597 
2270668773.038442, -0.481691, 0.876038, 0.000000, 0.000000, 0.067540, 222.778630 
2280674038.967878, -0.452997, 0.891232, 0.000000, 0.000000, 0.064739, 231.116460 
2290679304.897314, -0.423812, 0.905469, 0.000000, 0.000000, 0.067413, 239.623255 
2300684570.826751, -0.394176, 0.918730, 0.000000, 0.000000, 0.075801, 248.306443 
2310689836.756187, -0.364131, 0.931001, 0.000000, 0.000000, 0.089236, 257.174100 
2320695102.685624, -0.333718, 0.942274, 0.000000, 0.000000, 0.106213, 266.235341 
2330700368.615061, -0.302978, 0.952546, 0.000000, 0.000000, 0.124577, 275.500667 
2340705634.544497, -0.271943, 0.961816, 0.000000, 0.000000, 0.141804, 284.982255 
2350710900.473934, -0.240646, 0.970086, 0.000000, 0.000000, 0.155354, 294.694120 
2360716166.403370, -0.209113, 0.977356, 0.000000, 0.000000, 0.163046, 304.652167 
2370721432.332807, -0.177366, 0.983626, 0.000000, 0.000000, 0.163399, 314.874118 
2380726698.262243, -0.145428, 0.988890, 0.000000, 0.000000, 0.155913, 325.379320 
2390731964.191680, -0.113320, 0.993139, 0.000000, 0.000000, 0.141235, 336.188490 
2400737230.121117, -0.081066, 0.996360, 0.000000, 0.000000, 0.121192, 347.323411 
2410742496.050553, -0.048693, 0.998539, 0.000000, 0.000000, 0.098675, 358.806640 
2420747761.979990, -0.016235, 0.999659, 0.000000, 0.000000, 0.077376, 370.661289 
2430753027.909426, 0.016270, 0.999707, 0.000000, 0.000000, 0.061388, 382.910912 
2440758293.838862, 0.048778, 0.998671, 0.000000, 0.000000, 0.054718, 395.579562 
2450763559.768299, 0.081242, 0.996546, 0.000000, 0.000000, 0.060753, 408.692048 
2460768825.697736, 0.113612, 0.993332, 0.000000, 0.000000, 0.081735, 422.274412 
2470774091.627172, 0.145839, 0.989037, 0.000000, 0.000000, 0.118331, 436.354616 
2480779357.556609, 0.177877, 0.983677, 0.000000, 0.000000, 0.169336, 450.963432 
2490784623.486045, 0.209684, 0.977272, 0.000000, 0.000000, 0.231594, 466.135475 
2500789889.415482, 0.241225, 0.969847, 0.000000, 0.000000, 0.300137, 481.910309 
2510795155.344918, 0.272472, 0.961424, 0.000000, -0.000000, 0.368579, 498.333578 
2520800421.274355, 0.303402, 0.952029, 0.000000, -0.000000, 0.429725, 515.458060 
2530805687.203792, 0.333999, 0.941681, 0.000000, -0.000000, 0.476344, 533.344605 
2540810953.133228, 0.364251, 0.930392, 0.000000, 0.000000, 0.502049, 552.062917 
2550816219.062665, 0.394143, 0.918171, 0.000000, 0.000000, 0.502177, 571.692164 
2560821484.992101, 0.423662, 0.905020, 0.000000, 0.000000, 0.474589, 592.321457 
2570826750.921537, 0.452787, 0.890934, 0.000000, 0.000000, 0.420299, 614.050240 
2580832016.850974, 0.481494, 0.875910, 0.000000, 0.000000, 0.343840, 636.988698 
2590837282.780411, 0.509748, 0.859941, 0.000000, 0.000000, 0.253322, 661.258304 
2600842548.709847, 0.537509, 0.843025, 0.000000, 0.000000, 0.160119, 686.992652 
2610847814.639284, 0.564732, 0.825165, 0.000000, 0.000000, 0.078178, 714.338767 
2620853080.568720, 0.591365, 0.806373, 0.000000, 0.000000, 0.022958, 743.459116 
2630858346.498157, 0.617357, 0.786670, 0.000000, 0.000000, 0.010038, 774.534549 
2640863612.427593, 0.642659, 0.766086, 0.000000, 0.000000, 0.053483, 807.768463 
2650868878.357030, 0.667228, 0.744659, 0.000000, 0.000000, 0.164090, 843.392500 
2660874144.286467, 0.691026, 0.722436, 0.000000, 0.000000, 0.347668, 881.674103 
2670879410.215903, 0.714028, 0.699463, 0.000000, 0.000000, 0.603549, 922.926341 
2680884676.145340, 0.736218, 0.675791, 0.000000, -0.000000, 0.923509, 967.520452 
2690889942.074776, 0.757588, 0.651464, 0.000000, -0.000000, 1.291277, 1015.901688 
2700895208.004213, 0.778139, 0.626520, 0.000000, -0.000000, 1.682774, 1068.609264 
2710900473.933649, 0.797875, 0.600990, 0.000000, -0.000000, 2.067158, 1126.301573 
2720905739.863086, 0.816804, 0.574895, 0.000000, -0.000000, 2.408685, 1189.788367 
2730911005.792522, 0.834926, 0.548247, 0.000000, -0.000000, 2.669342, 1260.072553 
2740916271.721959, 0.852241, 0.521052, 0.000000, -0.000000, 2.812180, 1338.405555 
2750921537.651396, 0.868737, 0.493311, 0.000000, -0.000000, 2.805263, 1426.362418 
2760926803.580832, 0.884393, 0.465025, 0.000000, 0.000000, 2.626222, 1525.946198 
2770932069.510269, 0.899180, 0.436198, 0.000000, 0.000000, 2.267520, 1639.736794 
2780937335.439705, 0.913062, 0.406839, 0.000000, 0.000000, 1.742774, 1771.108806 
2790942601.369142, 0.925994, 0.376969, 0.000000, 0.000000, 1.094914, 1924.559570 
2800947867.298578, 0.937935, 0.346618, 0.000000, 0.000000, 0.407771, 2106.218679 
2810953133.228015, 0.948841, 0.315828, 0.000000, 0.000000, -0.175658, 2324.668001 
2820958399.157452, 0.958679, 0.284653, 0.000000, 0.000000, -0.421387, 2592.317236 
2830963665.086888, 0.967422, 0.253152, 0.000000, 0.000000, 0.056337, 2927.828593 
2840968931.016325, 0.975056, 0.221390, 0.000000, -0.000000, 1.921971, 3360.657339 
2850974196.945761, 0.981580, 0.189431, 0.000000, -0.000000, 6.410920, 3940.224451 
2860979462.875197, 0.987006, 0.157338, 0.000000, -0.000000, 16.086986, 4756.355883 
2870984728.804634, 0.991354, 0.125162, 0.000000, -0.000000, 37.141902, 5991.274204 
2880989994.734071, 0.994652, 0.092947, 0.000000, -0.000000, 88.182525, 8079.613084 
2890995260.663507, 0.996929, 0.060722, 0.000000, -0.000000, 249.223739, 12376.728583 
2901000526.592944, 0.998213, 0.028507, 0.000000, -0.000000, 1273.275366, 26327.750122 
2911005792.522380, 0.998527, -0.003690, 0.000000, -0.000000, 69927.865840, -176104.787160 
2921011058.451817, 0.997881, -0.035867, 0.000000, -0.000000, 859.859892, -20934.293029 
2931016324.381253, 0.996279, -0.068023, 0.000000, -0.000000, 227.418268, -11043.542771 
2941021590.310690, 0.993709, -0.100158, 0.000000, -0.000000, 93.917384, -7493.155188 
2951026856.240127, 0.990152, -0.132265, 0.000000, -0.000000, 45.061524, -5665.173546 
2961032122.169563, 0.985582, -0.164329, 0.000000, -0.000000, 22.496528, -4550.051246 
2971037388.099000, 0.979966, -0.196320, 0.000000, -0.000000, 10.882751, -3798.370834 
2981042654.028436, 0.973276, -0.228197, 0.000000, 0.000000, 4.702692, -3257.123900 
2991047919.957872, 0.965489, -0.259909, 0.000000, 0.000000, 1.529806, -2848.714767 
3001053185.887309, 0.956589, -0.291391, 0.000000, -0.000000, 0.127914, -2529.589089 
3011058451.816746, 0.946575, -0.322576, 0.000000, -0.000000, -0.209086, -2273.399089 
3021063717.746182, 0.935461, -0.353393, 0.000000, -0.000000, 0.078206, -2063.256459 
3031068983.675619, 0.923273, -0.383776, 0.000000, -0.000000, 0.697036, -1887.823313 
3041074249.605055, 0.910051, -0.413665, 0.000000, -0.000000, 1.445781, -1739.193166 
3051079515.534492, 0.895845, -0.443014, 0.000000, -0.000000, 2.184630, -1611.674402 
3061084781.463928, 0.880706, -0.471789, 0.000000, -0.000000, 2.819309, -1501.058326 
3071090047.393365, 0.864688, -0.499970, 0.000000, -0.000000, 3.291195, -1404.161248 
3081095313.322802, 0.847839, -0.527553, 0.000000, -0.000000, 3.570566, -1318.528387 
3091100579.252238, 0.830196, -0.554540, 0.000000, -0.000000, 3.651307, -1242.236848 
3101105845.181675, 0.811786, -0.580942, 0.000000, -0.000000, 3.546219, -1173.761111 
3111111111.111111, 0.792622, -0.606769, 0.000000, -0.000000, 3.282519, -1111.878939 
3121116377.040547, 0.772703, -0.632029, 0.000000, -0.000000, 2.897374, -1055.603932 
3131121642.969984, 0.752022, -0.656719, 0.000000, -0.000000, 2.433526, -1004.135932 
3141126908.899421, 0.730561, -0.680828, 0.000000, -0.000000, 1.935128, -956.823544 
3151132174.828857, 0.708303, -0.704329, 0.000000, -0.000000, 1.443990, -913.135011 
3161137440.758294, 0.685234, -0.727182, 0.000000, -0.000000, 0.996452, -872.634974 
3171142706.687730, 0.661348, -0.749336, 0.000000, -0.000000, 0.621026, -834.965516 
3181147972.617167, 0.636652, -0.770730, 0.000000, -0.000000, 0.336935, -799.830472 
3191153238.546604, 0.611166, -0.791302, 0.000000, -0.000000, 0.153567, -766.982350 
3201158504.476040, 0.584927, -0.810990, 0.000000, -0.000000, 0.070789, -736.211475 
3211163770.405477, 0.557985, -0.829738, 0.000000, -0.000000, 0.080004, -707.337083 
3221169036.334913, 0.530403, -0.847502, 0.000000, -0.000000, 0.165788, -680.200169 
3231174302.264350, 0.502250, -0.864252, 0.000000, -0.000000, 0.307904, -654.657925 
3241179568.193786, 0.473598, -0.879975, 0.000000, -0.000000, 0.483507, -630.579599 
3251184834.123223, 0.444515, -0.894671, 0.000000, -0.000000, 0.669332, -607.843608 
