# stacked metamaterial geometry 
# f [Hz], L [0.001 m]
# Unitcell size lx, ly, lz = 10, 10, 99.9308 at center position x = 0 y = 0 z = 0
# Definition of material properties: 
#name =copper,type =const,Kappa =56000000,
#name =FR4,Epsilon =4.4,Kappa =0.048957,type =const,
#name =copperSquares,type =const,Kappa =56000000,
#name =air,type =const,Epsilon =1,
## layer number 1:
# rect patch made of copper. lx, ly, lz = 10, 10, 0.5 at center position x = 0 y = 0 z = -0.25
# background material (if any) is air
# layer number 2:
# rect patch made of FR4. lx, ly, lz = 10, 10, 4 at center position x = 0 y = 0 z = -2.5
# background material (if any) is air
# layer number 3:
# square patch made of copperSquares lx, ly, lz = 9, 9, 0.05 at center position x = 0 y = 0 z = -4.525# with circular hole of radius 3.25
# Re/Im parts of the scattering parameters S11 (refl.) and S21 (transm.) and the real and imaginary part of the impedance as a function of frequency 
# first column is frequency, second and third columns are Re/Im of S11 and S21, respectively.
1000000000.000000, 0.994934, -0.101364, -0.000000, 0.000000, -6.193662, -7414.666860 
1010005265.929437, 0.992150, -0.135069, -0.000000, 0.000000, -53.599867, -5559.535250 
1020010531.858873, 0.987803, -0.168963, -0.000000, 0.000000, -56.489476, -4436.190743 
1030015797.788310, 0.981823, -0.202825, -0.000000, 0.000000, -46.466557, -3685.229187 
1040021063.717746, 0.974208, -0.236421, -0.000000, 0.000000, -33.138709, -3149.463166 
1050026329.647183, 0.965021, -0.269527, -0.000000, -0.000000, -19.945675, -2749.183094 
1060031595.576619, 0.954388, -0.301956, -0.000000, -0.000000, -8.216655, -2439.601415 
1070036861.506056, 0.942477, -0.333566, -0.000000, -0.000000, 1.549381, -2193.571838 
1080042127.435492, 0.929480, -0.364278, -0.000000, -0.000000, 9.218055, -1993.650227 
1090047393.364929, 0.915592, -0.394077, -0.000000, -0.000000, 14.832343, -1828.093901 
1100052659.294365, 0.900990, -0.423004, -0.000000, -0.000000, 18.531553, -1688.695615 
1110057925.223802, 0.885816, -0.451151, -0.000000, -0.000000, 20.513809, -1569.542178 
1120063191.153239, 0.870162, -0.478641, -0.000000, 0.000000, 21.016608, -1466.269587 
1130068457.082675, 0.854067, -0.505612, -0.000000, 0.000000, 20.304183, -1375.598753 
1140073723.012112, 0.837515, -0.532198, -0.000000, 0.000000, 18.656428, -1295.036184 
1150078988.941548, 0.820440, -0.558511, -0.000000, 0.000000, 16.357143, -1222.674359 
1160084254.870985, 0.802736, -0.584628, -0.000000, 0.000000, 13.681187, -1157.053319 
1170089520.800421, 0.784272, -0.610578, -0.000000, 0.000000, 10.881254, -1097.060136 
1180094786.729858, 0.764908, -0.636340, -0.000000, 0.000000, 8.175672, -1041.852072 
1190100052.659294, 0.744516, -0.661838, -0.000000, 0.000000, 5.738783, -990.795042 
1200105318.588731, 0.722991, -0.686952, -0.000000, 0.000000, 3.695134, -943.412807 
1210110584.518167, 0.700270, -0.711527, -0.000000, 0.000000, 2.118116, -899.344663 
1220115850.447604, 0.676338, -0.735389, -0.000000, 0.000000, 1.032872, -858.310696 
1230121116.377041, 0.651233, -0.758363, -0.000000, 0.000000, 0.422721, -820.084149 
1240126382.306477, 0.625042, -0.780288, -0.000000, 0.000000, 0.237874, -784.470485 
1250131648.235914, 0.597895, -0.801035, -0.000000, 0.000000, 0.405196, -751.292485 
1260136914.165350, 0.569947, -0.820519, -0.000000, 0.000000, 0.837887, -720.380500 
1270142180.094787, 0.541368, -0.838700, -0.000000, -0.000000, 1.444275, -691.566855 
1280147446.024223, 0.512320, -0.855588, -0.000000, -0.000000, 2.135227, -664.683370 
1290152711.953660, 0.482949, -0.871235, -0.000000, -0.000000, 2.830010, -639.561121 
1300157977.883096, 0.453365, -0.885725, -0.000000, 0.000000, 3.460572, -616.031690 
1310163243.812533, 0.423644, -0.899162, -0.000000, 0.000000, 3.974373, -593.929364 
1320168509.741970, 0.393816, -0.911655, -0.000000, 0.000000, 4.335885, -573.093874 
1330173775.671406, 0.363872, -0.923304, -0.000000, 0.000000, 4.526895, -553.373363 
1340179041.600842, 0.333772, -0.934190, -0.000000, 0.000000, 4.545712, -534.627342 
1350184307.530279, 0.303447, -0.944361, -0.000000, 0.000000, 4.405399, -516.729381 
1360189573.459716, 0.272819, -0.953832, -0.000000, 0.000000, 4.131132, -499.569310 
1370194839.389152, 0.241808, -0.962578, -0.000000, 0.000000, 3.756897, -483.054698 
1380200105.318589, 0.210347, -0.970541, -0.000000, 0.000000, 3.321754, -467.111427 
1390205371.248025, 0.178393, -0.977635, -0.000000, 0.000000, 2.865991, -451.683258 
1400210637.177462, 0.145933, -0.983752, -0.000000, 0.000000, 2.427500, -436.730382 
1410215903.106898, 0.112993, -0.988779, -0.000000, 0.000000, 2.038702, -422.227097 
1420221169.036335, 0.079630, -0.992609, -0.000000, 0.000000, 1.724279, -408.158817 
1430226434.965771, 0.045938, -0.995150, 0.000000, 0.000000, 1.499858, -394.518746 
1440231700.895208, 0.012032, -0.996337, -0.000000, 0.000000, 1.371679, -381.304522 
1450236966.824645, -0.021957, -0.996137, -0.000000, 0.000000, 1.337154, -368.515137 
1460242232.754081, -0.055898, -0.994552, -0.000000, 0.000000, 1.386145, -356.148365 
1470247498.683518, -0.089665, -0.991616, -0.000000, 0.000000, 1.502731, -344.198829 
1480252764.612954, -0.123155, -0.987388, -0.000000, 0.000000, 1.667238, -332.656772 
1490258030.542391, -0.156285, -0.981949, -0.000000, 0.000000, 1.858317, -321.507503 
1500263296.471827, -0.189005, -0.975385, -0.000000, 0.000000, 2.054889, -310.731447 
1510268562.401264, -0.221290, -0.967785, -0.000000, 0.000000, 2.237846, -300.304695 
1520273828.330700, -0.253143, -0.959223, -0.000000, 0.000000, 2.391391, -290.199939 
1530279094.260137, -0.284586, -0.949762, -0.000000, 0.000000, 2.503999, -280.387671 
1540284360.189574, -0.315651, -0.939438, -0.000000, 0.000000, 2.568944, -270.837530 
1550289626.119010, -0.346378, -0.928265, -0.000000, 0.000000, 2.584406, -261.519675 
1560294892.048447, -0.376799, -0.916235, -0.000000, 0.000000, 2.553175, -252.406095 
1570300157.977883, -0.406937, -0.903319, -0.000000, 0.000000, 2.482002, -243.471732 
1580305423.907320, -0.436796, -0.889474, -0.000000, 0.000000, 2.380655, -234.695344 
1590310689.836756, -0.466358, -0.874652, -0.000000, 0.000000, 2.260789, -226.060037 
1600315955.766193, -0.495586, -0.858802, 0.000000, 0.000000, 2.134728, -217.553430 
1610321221.695629, -0.524419, -0.841884, 0.000000, 0.000000, 2.014286, -209.167447 
1620326487.625066, -0.552784, -0.823873, 0.000000, 0.000000, 1.909730, -200.897780 
1630331753.554502, -0.580595, -0.804759, 0.000000, 0.000000, 1.828984, -192.743096 
1640337019.483939, -0.607762, -0.784556, 0.000000, 0.000000, 1.777133, -184.704078 
1650342285.413375, -0.634200, -0.763298, 0.000000, 0.000000, 1.756243, -176.782412 
1660347551.342812, -0.659835, -0.741035, -0.000000, 0.000000, 1.765488, -168.979827 
1670352817.272249, -0.684604, -0.717832, -0.000000, 0.000000, 1.801537, -161.297262 
1680358083.201685, -0.708463, -0.693758, -0.000000, 0.000000, 1.859130, -153.734237 
1690363349.131122, -0.731386, -0.668887, -0.000000, 0.000000, 1.931767, -146.288454 
1700368615.060558, -0.753360, -0.643285, -0.000000, 0.000000, 2.012432, -138.955627 
1710373880.989995, -0.774388, -0.617012, -0.000000, 0.000000, 2.094286, -131.729538 
1720379146.919431, -0.794478, -0.590117, -0.000000, 0.000000, 2.171269, -124.602283 
1730384412.848868, -0.813644, -0.562634, -0.000000, 0.000000, 2.238564, -117.564654 
1740389678.778304, -0.831898, -0.534585, -0.000000, 0.000000, 2.292918, -110.606628 
1750394944.707741, -0.849246, -0.505985, -0.000000, 0.000000, 2.332776, -103.717888 
1760400210.637177, -0.865687, -0.476837, -0.000000, 0.000000, 2.358255, -96.888346 
1770405476.566614, -0.881210, -0.447145, -0.000000, 0.000000, 2.370968, -90.108612 
1780410742.496051, -0.895792, -0.416912, 0.000000, 0.000000, 2.373718, -83.370365 
1790416008.425487, -0.909405, -0.386145, 0.000000, 0.000000, 2.370098, -76.666599 
1800421274.354924, -0.922011, -0.354859, 0.000000, 0.000000, 2.364054, -69.991738 
1810426540.284360, -0.933569, -0.323078, 0.000000, 0.000000, 2.359448, -63.341589 
1820431806.213797, -0.944041, -0.290835, 0.000000, 0.000000, 2.359666, -56.713171 
1830437072.143233, -0.953388, -0.258175, 0.000000, 0.000000, 2.367321, -50.104439 
1840442338.072670, -0.961581, -0.225146, 0.000000, 0.000000, 2.384064, -43.513930 
1850447604.002106, -0.968596, -0.191804, 0.000000, 0.000000, 2.410523, -36.940394 
1860452869.931543, -0.974420, -0.158205, 0.000000, 0.000000, 2.446372, -30.382431 
1870458135.860980, -0.979045, -0.124405, 0.000000, 0.000000, 2.490496, -23.838199 
1880463401.790416, -0.982472, -0.090455, -0.000000, 0.000000, 2.541237, -17.305194 
1890468667.719852, -0.984706, -0.056404, -0.000000, 0.000000, 2.596679, -10.780136 
1900473933.649289, -0.985754, -0.022292, -0.000000, 0.000000, 2.654946, -4.258964 
1910479199.578726, -0.985622, 0.011843, -0.000000, 0.000000, 2.714455, 2.263081 
1920484465.508162, -0.984315, 0.045967, -0.000000, 0.000000, 2.774132, 8.791292 
1930489731.437599, -0.981836, 0.080050, -0.000000, 0.000000, 2.833531, 15.331277 
1940494997.367035, -0.978183, 0.114060, -0.000000, 0.000000, 2.892881, 21.888722 
1950500263.296472, -0.973350, 0.147964, -0.000000, 0.000000, 2.953034, 28.469153 
1960505529.225908, -0.967333, 0.181726, 0.000000, 0.000000, 3.015341, 35.077743 
1970510795.155345, -0.960124, 0.215304, 0.000000, 0.000000, 3.081453, 41.719170 
1980516061.084782, -0.951721, 0.248652, 0.000000, 0.000000, 3.153091, 48.397557 
1990521327.014218, -0.942123, 0.281721, 0.000000, 0.000000, 3.231796, 55.116505 
2000526592.943655, -0.931336, 0.314458, 0.000000, 0.000000, 3.318706, 61.879204 
2010531858.873091, -0.919371, 0.346813, 0.000000, 0.000000, 3.414374, 68.688637 
2020537124.802528, -0.906246, 0.378733, 0.000000, 0.000000, 3.518662, 75.547824 
2030542390.731964, -0.891986, 0.410172, 0.000000, 0.000000, 3.630732, 82.460112 
2040547656.661401, -0.876617, 0.441088, 0.000000, 0.000000, 3.749119, 89.429451 
2050552922.590837, -0.860169, 0.471446, 0.000000, 0.000000, 3.871913, 96.460638 
2060558188.520274, -0.842671, 0.501215, 0.000000, 0.000000, 3.997000, 103.559490 
2070563454.449710, -0.824146, 0.530371, 0.000000, 0.000000, 4.122352, 110.732930 
2080568720.379147, -0.804618, 0.558893, 0.000000, 0.000000, 4.246339, 117.988980 
2090573986.308583, -0.784101, 0.586760, 0.000000, 0.000000, 4.368010, 125.336643 
2100579252.238020, -0.762606, 0.613951, 0.000000, 0.000000, 4.487331, 132.785704 
2110584518.167457, -0.740139, 0.640440, 0.000000, 0.000000, 4.605337, 140.346458 
2120589784.096893, -0.716703, 0.666194, 0.000000, 0.000000, 4.724186, 148.029402 
2130595050.026330, -0.692302, 0.691175, 0.000000, 0.000000, 4.847106, 155.844912 
2140600315.955766, -0.666942, 0.715337, 0.000000, 0.000000, 4.978225, 163.802956 
2150605581.885203, -0.640636, 0.738627, 0.000000, 0.000000, 5.122305, 171.912859 
2160610847.814639, -0.613402, 0.760987, 0.000000, 0.000000, 5.284387, 180.183167 
2170616113.744076, -0.585273, 0.782358, 0.000000, 0.000000, 5.469382, 188.621626 
2180621379.673512, -0.556288, 0.802682, 0.000000, 0.000000, 5.681643, 197.235305 
2190626645.602949, -0.526500, 0.821906, 0.000000, 0.000000, 5.924557, 206.030856 
2200631911.532386, -0.495967, 0.839984, 0.000000, 0.000000, 6.200211, 215.014921 
2210637177.461822, -0.464756, 0.856881, 0.000000, 0.000000, 6.509158, 224.194653 
2220642443.391258, -0.432935, 0.872575, 0.000000, 0.000000, 6.850340, 233.578321 
2230647709.320695, -0.400569, 0.887052, 0.000000, 0.000000, 7.221176, 243.175958 
2240652975.250132, -0.367721, 0.900313, 0.000000, 0.000000, 7.617831, 252.999985 
2250658241.179568, -0.334444, 0.912364, 0.000000, 0.000000, 8.035652, 263.065767 
2260663507.109005, -0.300780, 0.923217, 0.000000, 0.000000, 8.469746, 273.392046 
2270668773.038442, -0.266760, 0.932881, 0.000000, 0.000000, 8.915643, 284.001216 
2280674038.967878, -0.232409, 0.941366, 0.000000, 0.000000, 9.370007, 294.919413 
2290679304.897314, -0.197739, 0.948671, 0.000000, 0.000000, 9.831306, 306.176424 
2300684570.826751, -0.162760, 0.954787, 0.000000, 0.000000, 10.300416, 317.805434 
2310689836.756187, -0.127483, 0.959694, 0.000000, 0.000000, 10.781071, 329.842637 
2320695102.685624, -0.091920, 0.963360, 0.000000, 0.000000, 11.280149, 342.326773 
2330700368.615061, -0.056093, 0.965745, 0.000000, 0.000000, 11.807746, 355.298642 
2340705634.544497, -0.020035, 0.966802, 0.000000, 0.000000, 12.377037, 368.800661 
2350710900.473934, 0.016209, 0.966482, 0.000000, 0.000000, 13.003923, 382.876539 
2360716166.403370, 0.052577, 0.964736, 0.000000, 0.000000, 13.706481, 397.571145 
2370721432.332807, 0.088995, 0.961526, 0.000000, 0.000000, 14.504256, 412.930627 
2380726698.262243, 0.125378, 0.956822, 0.000000, 0.000000, 15.417448, 429.002873 
2390731964.191680, 0.161634, 0.950609, 0.000000, 0.000000, 16.466063, 445.838358 
2400737230.121117, 0.197667, 0.942888, 0.000000, 0.000000, 17.669105, 463.491428 
2410742496.050553, 0.233385, 0.933678, 0.000000, 0.000000, 19.043943, 482.022075 
2420747761.979990, 0.268700, 0.923011, 0.000000, 0.000000, 20.605920, 501.498188 
2430753027.909426, 0.303540, 0.910930, 0.000000, 0.000000, 22.368360, 521.998294 
2440758293.838862, 0.337844, 0.897487, 0.000000, 0.000000, 24.343037, 543.614743 
2450763559.768299, 0.371566, 0.882733, 0.000000, 0.000000, 26.541222, 566.457310 
2460768825.697736, 0.404676, 0.866719, 0.000000, 0.000000, 28.975352, 590.657168 
2470774091.627172, 0.437153, 0.849485, 0.000000, 0.000000, 31.661346, 616.371223 
2480779357.556609, 0.468987, 0.831063, 0.000000, 0.000000, 34.621618, 643.786835 
2490784623.486045, 0.500169, 0.811468, 0.000000, 0.000000, 37.888759, 673.127041 
2500789889.415482, 0.530688, 0.790704, 0.000000, 0.000000, 41.509960, 704.656451 
2510795155.344918, 0.560524, 0.768764, 0.000000, 0.000000, 45.552248, 738.688164 
2520800421.274355, 0.589649, 0.745632, 0.000000, 0.000000, 50.108728, 775.592129 
2530805687.203792, 0.618019, 0.721287, 0.000000, 0.000000, 55.306149, 815.805628 
2540810953.133228, 0.645573, 0.695712, 0.000000, 0.000000, 61.314371, 859.846759 
2550816219.062665, 0.672238, 0.668893, 0.000000, 0.000000, 68.358566, 908.332136 
2560821484.992101, 0.697926, 0.640831, 0.000000, 0.000000, 76.735521, 962.000503 
2570826750.921537, 0.722543, 0.611542, 0.000000, 0.000000, 86.836157, 1021.744650 
2580832016.850974, 0.745988, 0.581060, 0.000000, 0.000000, 99.177576, 1088.655036 
2590837282.780411, 0.768167, 0.549437, 0.000000, 0.000000, 114.449995, 1164.080091 
2600842548.709847, 0.788989, 0.516742, 0.000000, 0.000000, 133.587423, 1249.710560 
2610847814.639284, 0.808379, 0.483059, 0.000000, -0.000000, 157.877012, 1347.698867 
2620853080.568720, 0.826277, 0.448482, 0.000000, -0.000000, 189.133236, 1460.830120 
2630858346.498157, 0.842640, 0.413109, 0.000000, -0.000000, 229.984013, 1592.769891 
2640863612.427593, 0.857442, 0.377034, 0.000000, -0.000000, 284.357148, 1748.426288 
2650868878.357030, 0.870674, 0.340348, 0.000000, -0.000000, 358.339781, 1934.479450 
2660874144.286467, 0.882336, 0.303128, 0.000000, -0.000000, 461.764528, 2160.141290 
2670879410.215903, 0.892436, 0.265440, 0.000000, -0.000000, 611.283960, 2438.166071 
2680884676.145340, 0.900983, 0.227334, 0.000000, -0.000000, 836.658436, 2785.837129 
2690889942.074776, 0.907981, 0.188849, 0.000000, -0.000000, 1194.321074, 3224.238492 
2700895208.004213, 0.913424, 0.150014, 0.000000, -0.000000, 1797.682769, 3767.707782 
2710900473.933649, 0.917296, 0.110853, 0.000000, -0.000000, 2880.968209, 4366.473544 
2720905739.863086, 0.919566, 0.071389, 0.000000, -0.000000, 4863.090222, 4650.568283 
2730911005.792522, 0.920189, 0.031652, 0.000000, -0.000000, 7780.852674, 3235.166743 
2740916271.721959, 0.919112, -0.008320, 0.000000, -0.000000, 8840.590765, -948.018025 
2750921537.651396, 0.916270, -0.048470, 0.000000, -0.000000, 6363.308991, -3901.731450 
2760926803.580832, 0.911599, -0.088729, 0.000000, -0.000000, 3869.085130, -4261.596603 
2770932069.510269, 0.905037, -0.129007, 0.000000, -0.000000, 2411.612932, -3787.957340 
2780937335.439705, 0.896530, -0.169196, 0.000000, -0.000000, 1605.317640, -3241.078295 
2790942601.369142, 0.886037, -0.209176, 0.000000, -0.000000, 1136.542362, -2777.575741 
2800947867.298578, 0.873535, -0.248816, 0.000000, -0.000000, 846.408399, -2406.498047 
2810953133.228015, 0.859021, -0.287980, 0.000000, -0.000000, 656.481400, -2110.556224 
2820958399.157452, 0.842509, -0.326533, 0.000000, -0.000000, 526.154464, -1871.983247 
2830963665.086888, 0.824032, -0.364343, 0.000000, -0.000000, 433.142072, -1676.847428 
2840968931.016325, 0.803638, -0.401293, 0.000000, -0.000000, 364.527820, -1514.865569 
2850974196.945761, 0.781385, -0.437275, 0.000000, -0.000000, 312.460069, -1378.521592 
2860979462.875197, 0.757335, -0.472195, 0.000000, -0.000000, 271.967838, -1262.283905 
2870984728.804634, 0.731552, -0.505973, 0.000000, -0.000000, 239.793868, -1162.029485 
2880989994.734071, 0.704095, -0.538539, 0.000000, -0.000000, 213.741201, -1074.641182 
2890995260.663507, 0.675016, -0.569831, 0.000000, -0.000000, 192.291581, -997.729169 
2901000526.592944, 0.644360, -0.599788, 0.000000, -0.000000, 174.374034, -929.437412 
2911005792.522380, 0.612162, -0.628347, 0.000000, -0.000000, 159.219684, -868.307673 
2921011058.451817, 0.578454, -0.655440, 0.000000, -0.000000, 146.267845, -813.182541 
2931016324.381253, 0.543262, -0.680988, 0.000000, -0.000000, 135.103591, -763.135189 
2941021590.310690, 0.506615, -0.704902, 0.000000, -0.000000, 125.415244, -717.417601 
2951026856.240127, 0.468547, -0.727078, 0.000000, -0.000000, 116.964864, -675.421765 
2961032122.169563, 0.429104, -0.747404, 0.000000, -0.000000, 109.567440, -636.650105 
2971037388.099000, 0.388347, -0.765758, 0.000000, -0.000000, 103.076097, -600.692598 
2981042654.028436, 0.346354, -0.782014, 0.000000, -0.000000, 97.371550, -567.208853 
2991047919.957872, 0.303222, -0.796046, 0.000000, -0.000000, 92.354614, -535.913935 
3001053185.887309, 0.259070, -0.807734, 0.000000, -0.000000, 87.940962, -506.567094 
3011058451.816746, 0.214034, -0.816967, 0.000000, -0.000000, 84.057512, -478.962789 
3021063717.746182, 0.168266, -0.823648, 0.000000, -0.000000, 80.640006, -452.923564 
3031068983.675619, 0.121928, -0.827697, 0.000000, -0.000000, 77.631449, -428.294422 
3041074249.605055, 0.075191, -0.829049, 0.000000, -0.000000, 74.981127, -404.938429 
3051079515.534492, 0.028231, -0.827658, 0.000000, -0.000000, 72.644014, -382.733319 
3061084781.463928, -0.018777, -0.823496, 0.000000, -0.000000, 70.580413, -361.568911 
3071090047.393365, -0.065661, -0.816543, 0.000000, -0.000000, 68.755715, -341.345167 
3081095313.322802, -0.112252, -0.806796, 0.000000, -0.000000, 67.140196, -321.970760 
3091100579.252238, -0.158382, -0.794255, 0.000000, -0.000000, 65.708802, -303.362027 
3101105845.181675, -0.203889, -0.778929, 0.000000, -0.000000, 64.440887, -285.442198 
3111111111.111111, -0.248609, -0.760830, 0.000000, -0.000000, 63.319892, -268.140828 
3121116377.040547, -0.292378, -0.739974, 0.000000, -0.000000, 62.332953, -251.393351 
3131121642.969984, -0.335027, -0.716382, 0.000000, -0.000000, 61.470468, -235.140707 
3141126908.899421, -0.376380, -0.690081, 0.000000, -0.000000, 60.725610, -219.328981 
3151132174.828857, -0.416256, -0.661107, 0.000000, -0.000000, 60.093835, -203.909046 
3161137440.758294, -0.454464, -0.629507, 0.000000, -0.000000, 59.572389, -188.836172 
3171142706.687730, -0.490809, -0.595344, 0.000000, -0.000000, 59.159846, -174.069592 
3181147972.617167, -0.525089, -0.558700, 0.000000, -0.000000, 58.855700, -159.572032 
3191153238.546604, -0.557102, -0.519675, 0.000000, -0.000000, 58.660029, -145.309208 
3201158504.476040, -0.586644, -0.478393, 0.000000, -0.000000, 58.573243, -131.249305 
3211163770.405477, -0.613521, -0.435000, 0.000000, -0.000000, 58.595916, -117.362445 
3221169036.334913, -0.637544, -0.389664, 0.000000, -0.000000, 58.728727, -103.620186 
3231174302.264350, -0.658540, -0.342574, -0.000000, -0.000000, 58.972462, -89.995040 
