# stacked metamaterial geometry 
# f [Hz], L [0.001 m]
# Unitcell size lx, ly, lz = 10, 10, 99.9308 at center position x = 0 y = 0 z = 0
# Definition of material properties: 
#name =copper,type =const,Kappa =56000000,
#name =FR4,Epsilon =4.4,Kappa =0.048957,type =const,
#name =copperSquares,type =const,Kappa =56000000,
#name =air,type =const,Epsilon =1,
## layer number 1:
# rect patch made of copper. lx, ly, lz = 10, 10, 0.5 at center position x = 0 y = 0 z = -0.25
# background material (if any) is air
# layer number 2:
# rect patch made of FR4. lx, ly, lz = 10, 10, 0.4 at center position x = 0 y = 0 z = -0.7
# background material (if any) is air
# layer number 3:
# square patch made of copperSquares lx, ly, lz = 9, 9, 0.05 at center position x = 0 y = 0 z = -0.925# with circular hole of radius 2.75
# Re/Im parts of the scattering parameters S11 (refl.) and S21 (transm.) and the real and imaginary part of the impedance as a function of frequency 
# first column is frequency, second and third columns are Re/Im of S11 and S21, respectively.
1000000000.000000, 0.996254, -0.099814, -0.000000, -0.000000, -93.846692, -7538.000227 
1010005265.929437, 0.990691, -0.131847, -0.000000, -0.000000, 24.729528, -5686.312640 
1020010531.858873, 0.984290, -0.163067, -0.000000, -0.000000, 64.335119, -4578.049107 
1030015797.788310, 0.977273, -0.193564, -0.000000, -0.000000, 74.087174, -3839.637247 
1040021063.717746, 0.969810, -0.223490, -0.000000, -0.000000, 70.520237, -3310.915303 
1050026329.647183, 0.961991, -0.253043, -0.000000, 0.000000, 60.661581, -2911.899141 
1060031595.576619, 0.953823, -0.282429, -0.000000, 0.000000, 48.094825, -2598.330797 
1070036861.506056, 0.945233, -0.311838, -0.000000, 0.000000, 34.918121, -2343.896304 
1080042127.435492, 0.936078, -0.341416, -0.000000, 0.000000, 22.459771, -2132.127220 
1090047393.364929, 0.926164, -0.371245, -0.000000, 0.000000, 11.562066, -1952.322414 
1100052659.294365, 0.915275, -0.401327, -0.000000, 0.000000, 2.707756, -1797.318451 
1110057925.223802, 0.903197, -0.431582, -0.000000, 0.000000, -3.906596, -1662.186233 
1120063191.153239, 0.889754, -0.461857, -0.000000, 0.000000, -8.310615, -1543.430140 
1130068457.082675, 0.874824, -0.491937, -0.000000, 0.000000, -10.701515, -1438.480794 
1140073723.012112, 0.858363, -0.521577, -0.000000, 0.000000, -11.386984, -1345.370260 
1150078988.941548, 0.840407, -0.550523, -0.000000, 0.000000, -10.733495, -1262.525013 
1160084254.870985, 0.821073, -0.578550, -0.000000, 0.000000, -9.123617, -1188.635831 
1170089520.800421, 0.800539, -0.605480, -0.000000, -0.000000, -6.923916, -1122.577453 
1180094786.729858, 0.779024, -0.631205, -0.000000, -0.000000, -4.463066, -1063.359693 
1190100052.659294, 0.756760, -0.655694, -0.000000, -0.000000, -2.018486, -1010.097981 
1200105318.588731, 0.733964, -0.678990, -0.000000, -0.000000, 0.190597, -961.995726 
1210110584.518167, 0.710814, -0.701199, -0.000000, -0.000000, 2.005570, -918.333966 
1220115850.447604, 0.687432, -0.722471, -0.000000, 0.000000, 3.327714, -878.465732 
1230121116.377041, 0.663870, -0.742975, -0.000000, 0.000000, 4.115099, -841.813588 
1240126382.306477, 0.640117, -0.762878, -0.000000, 0.000000, 4.377350, -807.869311 
1250131648.235914, 0.616096, -0.782319, -0.000000, 0.000000, 4.168264, -776.194712 
1260136914.165350, 0.591687, -0.801391, -0.000000, 0.000000, 3.576289, -746.422512 
1270142180.094787, 0.566739, -0.820128, -0.000000, 0.000000, 2.713145, -718.256112 
1280147446.024223, 0.541098, -0.838503, -0.000000, 0.000000, 1.701275, -691.467222 
1290152711.953660, 0.514625, -0.856423, -0.000000, 0.000000, 0.661229, -665.890645 
1300157977.883096, 0.487221, -0.873746, -0.000000, 0.000000, -0.299707, -641.416101 
1310163243.812533, 0.458840, -0.890295, -0.000000, 0.000000, -1.096405, -617.977593 
1320168509.741970, 0.429498, -0.905879, -0.000000, 0.000000, -1.671460, -595.541310 
1330173775.671406, 0.399273, -0.920317, -0.000000, 0.000000, -1.997113, -574.093351 
1340179041.600842, 0.368301, -0.933460, -0.000000, 0.000000, -2.073814, -553.628473 
1350184307.530279, 0.336754, -0.945206, -0.000000, 0.000000, -1.926133, -534.140798 
1360189573.459716, 0.304826, -0.955510, -0.000000, 0.000000, -1.596945, -515.616985 
1370194839.389152, 0.272708, -0.964390, -0.000000, -0.000000, -1.140832, -498.031971 
1380200105.318589, 0.240570, -0.971916, -0.000000, -0.000000, -0.617490, -481.347083 
1390205371.248025, 0.208540, -0.978198, -0.000000, 0.000000, -0.085695, -465.510141 
1400210637.177462, 0.176700, -0.983373, -0.000000, 0.000000, 0.401787, -450.457111 
1410215903.106898, 0.145078, -0.987583, -0.000000, 0.000000, 0.802166, -436.114900 
1420221169.036335, 0.113652, -0.990955, -0.000000, 0.000000, 1.085348, -422.404908 
1430226434.965771, 0.082358, -0.993589, -0.000000, 0.000000, 1.235388, -409.247009 
1440231700.895208, 0.051107, -0.995544, -0.000000, 0.000000, 1.250643, -396.563629 
1450236966.824645, 0.019795, -0.996835, -0.000000, 0.000000, 1.142693, -384.283604 
1460242232.754081, -0.011674, -0.997426, -0.000000, 0.000000, 0.934125, -372.345474 
1470247498.683518, -0.043375, -0.997243, -0.000000, 0.000000, 0.655422, -360.699893 
1480252764.612954, -0.075349, -0.996181, -0.000000, 0.000000, 0.341265, -349.310925 
1490258030.542391, -0.107595, -0.994116, -0.000000, 0.000000, 0.026659, -338.156087 
1500263296.471827, -0.140064, -0.990927, 0.000000, 0.000000, -0.256668, -327.225173 
1510268562.401264, -0.172668, -0.986508, 0.000000, 0.000000, -0.483216, -316.518050 
1520273828.330700, -0.205282, -0.980782, 0.000000, 0.000000, -0.635711, -306.041748 
1530279094.260137, -0.237763, -0.973713, 0.000000, 0.000000, -0.706026, -295.807236 
1540284360.189574, -0.269963, -0.965306, -0.000000, 0.000000, -0.695044, -285.826271 
1550289626.119010, -0.301740, -0.955608, -0.000000, 0.000000, -0.611614, -276.108641 
1560294892.048447, -0.332980, -0.944701, -0.000000, 0.000000, -0.470834, -266.660041 
1570300157.977883, -0.363598, -0.932690, -0.000000, 0.000000, -0.291938, -257.480674 
1580305423.907320, -0.393548, -0.919691, -0.000000, 0.000000, -0.096037, -248.564620 
1590310689.836756, -0.422819, -0.905814, -0.000000, 0.000000, 0.096066, -239.899898 
1600315955.766193, -0.451435, -0.891157, -0.000000, 0.000000, 0.265800, -231.469138 
1610321221.695629, -0.479440, -0.875792, -0.000000, 0.000000, 0.398379, -223.250727 
1620326487.625066, -0.506895, -0.859762, -0.000000, 0.000000, 0.483883, -215.220288 
1630331753.554502, -0.533861, -0.843079, -0.000000, 0.000000, 0.517809, -207.352356 
1640337019.483939, -0.560390, -0.825723, -0.000000, 0.000000, 0.501091, -199.622082 
1650342285.413375, -0.586515, -0.807652, -0.000000, 0.000000, 0.439598, -192.006813 
1660347551.342812, -0.612246, -0.788810, -0.000000, 0.000000, 0.343177, -184.487410 
1670352817.272249, -0.637560, -0.769135, 0.000000, 0.000000, 0.224357, -177.049155 
1680358083.201685, -0.662410, -0.748570, 0.000000, 0.000000, 0.096868, -169.682195 
1690363349.131122, -0.686725, -0.727077, 0.000000, 0.000000, -0.025864, -162.381468 
1700368615.060558, -0.710414, -0.704635, 0.000000, 0.000000, -0.132070, -155.146167 
1710373880.989995, -0.733383, -0.681254, 0.000000, 0.000000, -0.212699, -147.978821 
1720379146.919431, -0.755538, -0.656968, 0.000000, 0.000000, -0.262086, -140.884141 
1730384412.848868, -0.776795, -0.631835, 0.000000, 0.000000, -0.278198, -133.867771 
1740389678.778304, -0.797090, -0.605932, -0.000000, 0.000000, -0.262477, -126.935105 
1750394944.707741, -0.816380, -0.579345, -0.000000, 0.000000, -0.219345, -120.090273 
1760400210.637177, -0.834645, -0.552162, -0.000000, 0.000000, -0.155462, -113.335392 
1770405476.566614, -0.851886, -0.524467, -0.000000, 0.000000, -0.078849, -106.670112 
1780410742.496051, -0.868123, -0.496329, -0.000000, 0.000000, 0.002020, -100.091466 
1790416008.425487, -0.883384, -0.467806, -0.000000, 0.000000, 0.079077, -93.594002 
1800421274.354924, -0.897704, -0.438933, -0.000000, 0.000000, 0.145388, -87.170143 
1810426540.284360, -0.911117, -0.409733, -0.000000, 0.000000, 0.195710, -80.810729 
1820431806.213797, -0.923648, -0.380210, -0.000000, 0.000000, 0.226827, -74.505661 
1830437072.143233, -0.935311, -0.350360, -0.000000, 0.000000, 0.237670, -68.244596 
1840442338.072670, -0.946108, -0.320175, 0.000000, 0.000000, 0.229212, -62.017608 
1850447604.002106, -0.956027, -0.289645, 0.000000, 0.000000, 0.204175, -55.815757 
1860452869.931543, -0.965041, -0.258766, 0.000000, 0.000000, 0.166581, -49.631519 
1870458135.860980, -0.973116, -0.227543, 0.000000, 0.000000, 0.121213, -43.459033 
1880463401.790416, -0.980214, -0.195992, 0.000000, 0.000000, 0.073054, -37.294152 
1890468667.719852, -0.986294, -0.164143, 0.000000, 0.000000, 0.026760, -31.134314 
1900473933.649289, -0.991318, -0.132035, 0.000000, 0.000000, -0.013766, -24.978261 
1910479199.578726, -0.995259, -0.099718, 0.000000, 0.000000, -0.045658, -18.825654 
1920484465.508162, -0.998094, -0.067246, 0.000000, 0.000000, -0.067229, -12.676645 
1930489731.437599, -0.999813, -0.034678, 0.000000, 0.000000, -0.077951, -6.531466 
1940494997.367035, -1.000414, -0.002072, -0.000000, 0.000000, -0.078316, -0.390070 
1950500263.296472, -0.999904, 0.030520, -0.000000, 0.000000, -0.069613, 5.748126 
1960505529.225908, -0.998296, 0.063048, -0.000000, 0.000000, -0.053652, 11.884401 
1970510795.155345, -0.995605, 0.095467, -0.000000, 0.000000, -0.032489, 18.020772 
1980516061.084782, -0.991851, 0.127742, -0.000000, 0.000000, -0.008184, 24.159956 
1990521327.014218, -0.987051, 0.159837, -0.000000, 0.000000, 0.017393, 30.305255 
2000526592.943655, -0.981220, 0.191723, -0.000000, 0.000000, 0.042673, 36.460412 
2010531858.873091, -0.974376, 0.223374, 0.000000, 0.000000, 0.066441, 42.629446 
2020537124.802528, -0.966530, 0.254763, 0.000000, 0.000000, 0.087814, 48.816517 
2030542390.731964, -0.957695, 0.285864, 0.000000, 0.000000, 0.106170, 55.025819 
2040547656.661401, -0.947882, 0.316651, 0.000000, 0.000000, 0.121061, 61.261537 
2050552922.590837, -0.937104, 0.347099, 0.000000, 0.000000, 0.132112, 67.527847 
2060558188.520274, -0.925372, 0.377182, 0.000000, 0.000000, 0.138954, 73.828972 
2070563454.449710, -0.912699, 0.406876, 0.000000, 0.000000, 0.141185, 80.169267 
2080568720.379147, -0.899096, 0.436155, 0.000000, 0.000000, 0.138399, 86.553314 
2090573986.308583, -0.884576, 0.464998, 0.000000, 0.000000, 0.130247, 92.986001 
2100579252.238020, -0.869148, 0.493381, 0.000000, 0.000000, 0.116557, 99.472568 
2110584518.167457, -0.852822, 0.521283, 0.000000, 0.000000, 0.097458, 106.018592 
2120589784.096893, -0.835605, 0.548679, 0.000000, 0.000000, 0.073516, 112.629911 
2130595050.026330, -0.817501, 0.575543, 0.000000, 0.000000, 0.045831, 119.312494 
2140600315.955766, -0.798516, 0.601846, -0.000000, 0.000000, 0.016081, 126.072259 
2150605581.885203, -0.778655, 0.627553, -0.000000, 0.000000, -0.013509, 132.914863 
2160610847.814639, -0.757927, 0.652628, -0.000000, 0.000000, -0.040275, 139.845499 
2170616113.744076, -0.736343, 0.677026, 0.000000, 0.000000, -0.061319, 146.868727 
2180621379.673512, -0.713923, 0.700703, 0.000000, 0.000000, -0.073781, 153.988366 
2190626645.602949, -0.690694, 0.723614, 0.000000, 0.000000, -0.075162, 161.207489 
2200631911.532386, -0.666690, 0.745713, 0.000000, 0.000000, -0.063680, 168.528527 
2210637177.461822, -0.641955, 0.766961, 0.000000, 0.000000, -0.038587, 175.953506 
2220642443.391258, -0.616538, 0.787327, 0.000000, 0.000000, -0.000432, 183.484405 
2230647709.320695, -0.590492, 0.806788, 0.000000, 0.000000, 0.048794, 191.123615 
2240652975.250132, -0.563872, 0.825331, 0.000000, 0.000000, 0.105670, 198.874458 
2250658241.179568, -0.536728, 0.842955, 0.000000, 0.000000, 0.165523, 206.741710 
2260663507.109005, -0.509107, 0.859666, 0.000000, 0.000000, 0.222787, 214.732072 
2270668773.038442, -0.481043, 0.875480, 0.000000, 0.000000, 0.271518, 222.854507 
2280674038.967878, -0.452562, 0.890410, 0.000000, 0.000000, 0.306005, 231.120411 
2290679304.897314, -0.423677, 0.904473, 0.000000, 0.000000, 0.321430, 239.543571 
2300684570.826751, -0.394393, 0.917675, 0.000000, 0.000000, 0.314491, 248.139909 
2310689836.756187, -0.364706, 0.930018, 0.000000, 0.000000, 0.283914, 256.927022 
2320695102.685624, -0.334611, 0.941489, 0.000000, 0.000000, 0.230797, 265.923567 
2330700368.615061, -0.304102, 0.952063, 0.000000, 0.000000, 0.158730, 275.148550 
2340705634.544497, -0.273181, 0.961704, 0.000000, 0.000000, 0.073672, 284.620586 
2350710900.473934, -0.241860, 0.970367, 0.000000, 0.000000, -0.016430, 294.357212 
2360716166.403370, -0.210164, 0.978002, 0.000000, 0.000000, -0.102257, 304.374330 
2370721432.332807, -0.178133, 0.984559, 0.000000, 0.000000, -0.173936, 314.685851 
2380726698.262243, -0.145823, 0.989993, 0.000000, 0.000000, -0.222004, 325.303604 
2390731964.191680, -0.113303, 0.994270, 0.000000, 0.000000, -0.238436, 336.237561 
2400737230.121117, -0.080649, 0.997369, 0.000000, 0.000000, -0.217655, 347.496410 
2410742496.050553, -0.047944, 0.999288, 0.000000, 0.000000, -0.157395, 359.088478 
2420747761.979990, -0.015266, 1.000043, 0.000000, 0.000000, -0.059323, 371.022955 
2430753027.909426, 0.017314, 0.999666, 0.000000, 0.000000, 0.070697, 383.311366 
2440758293.838862, 0.049739, 0.998200, 0.000000, 0.000000, 0.222773, 395.969148 
2450763559.768299, 0.081967, 0.995698, 0.000000, 0.000000, 0.383621, 409.017209 
2460768825.697736, 0.113978, 0.992211, 0.000000, 0.000000, 0.537648, 422.483286 
2470774091.627172, 0.145767, 0.987789, 0.000000, 0.000000, 0.668405, 436.402979 
2480779357.556609, 0.177343, 0.982464, 0.000000, 0.000000, 0.760269, 450.820327 
2490784623.486045, 0.208724, 0.976258, 0.000000, 0.000000, 0.800192, 465.787876 
2500789889.415482, 0.239931, 0.969172, 0.000000, 0.000000, 0.779325, 481.366251 
2510795155.344918, 0.270981, 0.961190, 0.000000, 0.000000, 0.694356, 497.623274 
2520800421.274355, 0.301881, 0.952281, 0.000000, 0.000000, 0.548409, 514.632771 
2530805687.203792, 0.332620, 0.942401, 0.000000, 0.000000, 0.351394, 532.473208 
2540810953.133228, 0.363169, 0.931506, 0.000000, 0.000000, 0.119766, 551.226323 
2550816219.062665, 0.393481, 0.919551, 0.000000, 0.000000, -0.124353, 570.975960 
2560821484.992101, 0.423486, 0.906502, 0.000000, 0.000000, -0.354659, 591.807287 
2570826750.921537, 0.453105, 0.892342, 0.000000, 0.000000, -0.542714, 613.806604 
2580832016.850974, 0.482248, 0.877072, 0.000000, 0.000000, -0.660456, 637.061948 
2590837282.780411, 0.510824, 0.860718, 0.000000, 0.000000, -0.683035, 661.664704 
2600842548.709847, 0.538750, 0.843327, 0.000000, 0.000000, -0.591765, 687.712419 
2610847814.639284, 0.565956, 0.824962, 0.000000, 0.000000, -0.376921, 715.312962 
2620853080.568720, 0.592393, 0.805703, 0.000000, 0.000000, -0.040085, 744.590147 
2630858346.498157, 0.618033, 0.785631, 0.000000, -0.000000, 0.404307, 775.690812 
2640863612.427593, 0.642871, 0.764827, 0.000000, -0.000000, 0.928501, 808.793284 
2650868878.357030, 0.666924, 0.743360, 0.000000, -0.000000, 1.492283, 844.117097 
2660874144.286467, 0.690222, 0.721283, 0.000000, -0.000000, 2.045213, 881.933800 
2670879410.215903, 0.712804, 0.698626, 0.000000, -0.000000, 2.530185, 922.578803 
2680884676.145340, 0.734709, 0.675401, 0.000000, -0.000000, 2.888061, 966.464363 
2690889942.074776, 0.755968, 0.651595, 0.000000, -0.000000, 3.063044, 1014.094153 
2700895208.004213, 0.776598, 0.627181, 0.000000, 0.000000, 3.008395, 1066.080235 
2710900473.933649, 0.796593, 0.602123, 0.000000, 0.000000, 2.692127, 1123.163820 
2720905739.863086, 0.815930, 0.576382, 0.000000, 0.000000, 2.102403, 1186.241875 
2730911005.792522, 0.834558, 0.549924, 0.000000, 0.000000, 1.252487, 1256.402523 
2740916271.721959, 0.852413, 0.522731, 0.000000, 0.000000, 0.185232, 1334.973516 
2750921537.651396, 0.869414, 0.494804, 0.000000, 0.000000, -1.022800, 1423.590055 
2760926803.580832, 0.885477, 0.466167, 0.000000, 0.000000, -2.257343, 1524.291450 
2770932069.510269, 0.900520, 0.436869, 0.000000, 0.000000, -3.362184, 1639.661477 
2780937335.439705, 0.914475, 0.406982, 0.000000, 0.000000, -4.133995, 1773.036440 
2790942601.369142, 0.927288, 0.376593, 0.000000, 0.000000, -4.314969, 1928.821007 
2800947867.298578, 0.938932, 0.345802, 0.000000, -0.000000, -3.580817, 2112.981188 
2810953133.228015, 0.949405, 0.314707, 0.000000, -0.000000, -1.519129, 2333.839492 
2820958399.157452, 0.958727, 0.283402, 0.000000, -0.000000, 2.412227, 2603.408840 
2830963665.086888, 0.966942, 0.251964, 0.000000, -0.000000, 8.968995, 2939.739394 
2840968931.016325, 0.974104, 0.220450, 0.000000, -0.000000, 19.298295, 3371.297796 
2850974196.945761, 0.980273, 0.188894, 0.000000, -0.000000, 35.341001, 3945.769282 
2860979462.875197, 0.985508, 0.157303, 0.000000, -0.000000, 60.834698, 4749.539963 
2870984728.804634, 0.989854, 0.125668, 0.000000, -0.000000, 104.197979, 5956.807380 
2880989994.734071, 0.993340, 0.093961, 0.000000, -0.000000, 188.840803, 7978.743340 
2890995260.663507, 0.995971, 0.062149, 0.000000, -0.000000, 405.976685, 12072.698014 
2901000526.592944, 0.997731, 0.030198, 0.000000, -0.000000, 1487.862772, 24810.484520 
2911005792.522380, 0.998581, -0.001916, 0.000000, 0.000000, 187771.317973, -253931.158807 
2921011058.451817, 0.998466, -0.034199, 0.000000, 0.000000, 609.435921, -21987.157376 
2931016324.381253, 0.997322, -0.066639, 0.000000, 0.000000, 76.979621, -11288.283444 
2941021590.310690, 0.995080, -0.099198, 0.000000, 0.000000, -0.938327, -7576.912124 
2951026856.240127, 0.991681, -0.131812, 0.000000, 0.000000, -17.420060, -5693.495217 
2961032122.169563, 0.987080, -0.164401, 0.000000, -0.000000, -18.771322, -4554.932918 
2971037388.099000, 0.981252, -0.196868, 0.000000, -0.000000, -15.528567, -3792.828832 
2981042654.028436, 0.974196, -0.229112, 0.000000, -0.000000, -10.986158, -3247.414342 
2991047919.957872, 0.965938, -0.261033, 0.000000, -0.000000, -6.389289, -2838.131536 
3001053185.887309, 0.956528, -0.292542, 0.000000, -0.000000, -2.263581, -2519.918399 
3011058451.816746, 0.946029, -0.323568, 0.000000, -0.000000, 1.163943, -2265.568740 
3021063717.746182, 0.934520, -0.354063, 0.000000, -0.000000, 3.810089, -2057.664549 
3031068983.675619, 0.922079, -0.384003, 0.000000, -0.000000, 5.671335, -1884.524631 
3041074249.605055, 0.908779, -0.413388, 0.000000, -0.000000, 6.793893, -1738.016687 
3051079515.534492, 0.894677, -0.442235, 0.000000, -0.000000, 7.257487, -1612.304839 
3061084781.463928, 0.879814, -0.470576, 0.000000, -0.000000, 7.164692, -1503.097377 
3071090047.393365, 0.864206, -0.498446, 0.000000, -0.000000, 6.632389, -1407.176103 
3081095313.322802, 0.847850, -0.525879, 0.000000, -0.000000, 5.783965, -1322.090978 
3091100579.252238, 0.830721, -0.552897, 0.000000, -0.000000, 4.741863, -1245.955172 
3101105845.181675, 0.812780, -0.579503, 0.000000, -0.000000, 3.620630, -1177.302898 
3111111111.111111, 0.793984, -0.605682, 0.000000, -0.000000, 2.520849, -1114.987516 
3121116377.040547, 0.774287, -0.631395, 0.000000, -0.000000, 1.524411, -1058.106231 
3131121642.969984, 0.753656, -0.656582, 0.000000, -0.000000, 0.691493, -1005.942945 
3141126908.899421, 0.732070, -0.681168, 0.000000, -0.000000, 0.059409, -957.924045 
3151132174.828857, 0.709531, -0.705064, 0.000000, -0.000000, -0.356703, -913.583851 
3161137440.758294, 0.686065, -0.728184, 0.000000, -0.000000, -0.561617, -872.537629 
3171142706.687730, 0.661720, -0.750442, 0.000000, -0.000000, -0.576562, -834.460690 
3181147972.617167, 0.636562, -0.771770, 0.000000, -0.000000, -0.435026, -799.072522 
3191153238.546604, 0.610674, -0.792115, 0.000000, -0.000000, -0.178277, -766.125037 
3201158504.476040, 0.584145, -0.811447, 0.000000, -0.000000, 0.149028, -735.394203 
3211163770.405477, 0.557063, -0.829759, 0.000000, -0.000000, 0.502841, -706.674368 
3221169036.334913, 0.529507, -0.847066, 0.000000, -0.000000, 0.843125, -679.774723 
3231174302.264350, 0.501542, -0.863399, 0.000000, -0.000000, 1.136520, -654.517375 
3241179568.193786, 0.473215, -0.878796, 0.000000, -0.000000, 1.358201, -630.736628 
