# stacked metamaterial geometry 
# f [Hz], L [0.001 m]
# Unitcell size lx, ly, lz = 10, 10, 99.9308 at center position x = 0 y = 0 z = 0
# Definition of material properties: 
#name =copper,type =const,Kappa =56000000,
#name =FR4,Epsilon =4.4,Kappa =0.048957,type =const,
#name =copperSquares,type =const,Kappa =56000000,
#name =air,type =const,Epsilon =1,
## layer number 1:
# square patch made of copperSquares lx, ly, lz = 9, 9, 0.05 at center position x = 0 y = 0 z = -0.025# with circular hole of radius 2.85
# Re/Im parts of the scattering parameters S11 (refl.) and S21 (transm.) and the real and imaginary part of the impedance as a function of frequency 
# first column is frequency, second and third columns are Re/Im of S11 and S21, respectively.
1000000000.000000, -0.132846, 0.036968, -0.269382, -0.950709, 287.666343, 21.680915 
1010005265.929437, -0.133459, 0.039748, -0.286769, -0.945357, 287.197635, 23.282768 
1020010531.858873, -0.134014, 0.042563, -0.304049, -0.939686, 286.754095, 24.902837 
1030015797.788310, -0.134510, 0.045411, -0.321215, -0.933698, 286.335983, 26.540821 
1040021063.717746, -0.134945, 0.048291, -0.338263, -0.927397, 285.943554, 28.196423 
1050026329.647183, -0.135320, 0.051202, -0.355187, -0.920784, 285.577064, 29.869351 
1060031595.576619, -0.135633, 0.054141, -0.371980, -0.913861, 285.236768, 31.559319 
1070036861.506056, -0.135883, 0.057109, -0.388638, -0.906632, 284.922921, 33.266046 
1080042127.435492, -0.136069, 0.060103, -0.405154, -0.899100, 284.635778, 34.989254 
1090047393.364929, -0.136190, 0.063123, -0.421523, -0.891266, 284.375595, 36.728671 
1100052659.294365, -0.136246, 0.066166, -0.437740, -0.883133, 284.142630, 38.484029 
1110057925.223802, -0.136235, 0.069232, -0.453799, -0.874706, 283.937142, 40.255065 
1120063191.153239, -0.136157, 0.072319, -0.469695, -0.865986, 283.759392, 42.041519 
1130068457.082675, -0.136011, 0.075425, -0.485423, -0.856978, 283.609644, 43.843137 
1140073723.012112, -0.135796, 0.078550, -0.500977, -0.847683, 283.488163, 45.659667 
1150078988.941548, -0.135512, 0.081691, -0.516352, -0.838106, 283.395222, 47.490862 
1160084254.870985, -0.135158, 0.084848, -0.531543, -0.828251, 283.331092, 49.336477 
1170089520.800421, -0.134734, 0.088018, -0.546545, -0.818120, 283.296052, 51.196272 
1180094786.729858, -0.134238, 0.091200, -0.561353, -0.807717, 283.290386, 53.070008 
1190100052.659294, -0.133670, 0.094393, -0.575962, -0.797046, 283.314379, 54.957452 
1200105318.588731, -0.133030, 0.097595, -0.590368, -0.786111, 283.368326, 56.858370 
1210110584.518167, -0.132316, 0.100804, -0.604565, -0.774915, 283.452525, 58.772533 
1220115850.447604, -0.131530, 0.104019, -0.618549, -0.763463, 283.567281, 60.699713 
1230121116.377041, -0.130669, 0.107238, -0.632315, -0.751759, 283.712906, 62.639684 
1240126382.306477, -0.129735, 0.110460, -0.645859, -0.739807, 283.889719, 64.592221 
1250131648.235914, -0.128726, 0.113683, -0.659177, -0.727611, 284.098045, 66.557101 
1260136914.165350, -0.127642, 0.116905, -0.672263, -0.715175, 284.338219, 68.534101 
1270142180.094787, -0.126482, 0.120124, -0.685114, -0.702504, 284.610582, 70.522999 
1280147446.024223, -0.125248, 0.123339, -0.697725, -0.689602, 284.915484, 72.523573 
1290152711.953660, -0.123937, 0.126549, -0.710093, -0.676474, 285.253287, 74.535602 
1300157977.883096, -0.122551, 0.129751, -0.722213, -0.663124, 285.624357, 76.558863 
1310163243.812533, -0.121088, 0.132944, -0.734081, -0.649558, 286.029075, 78.593133 
1320168509.741970, -0.119550, 0.136126, -0.745694, -0.635779, 286.467828, 80.638186 
1330173775.671406, -0.117935, 0.139295, -0.757047, -0.621792, 286.941017, 82.693797 
1340179041.600842, -0.116244, 0.142450, -0.768138, -0.607603, 287.449051, 84.759736 
1350184307.530279, -0.114477, 0.145589, -0.778962, -0.593217, 287.992352, 86.835773 
1360189573.459716, -0.112633, 0.148710, -0.789515, -0.578638, 288.571353, 88.921672 
1370194839.389152, -0.110714, 0.151812, -0.799796, -0.563871, 289.186500, 91.017197 
1380200105.318589, -0.108718, 0.154892, -0.809799, -0.548922, 289.838250, 93.122104 
1390205371.248025, -0.106646, 0.157949, -0.819522, -0.533795, 290.527074, 95.236146 
1400210637.177462, -0.104499, 0.160982, -0.828962, -0.518497, 291.253457, 97.359073 
1410215903.106898, -0.102276, 0.163987, -0.838116, -0.503032, 292.017897, 99.490625 
1420221169.036335, -0.099978, 0.166965, -0.846981, -0.487405, 292.820904, 101.630539 
1430226434.965771, -0.097605, 0.169912, -0.855554, -0.471623, 293.663006, 103.778543 
1440231700.895208, -0.095158, 0.172828, -0.863832, -0.455690, 294.544743, 105.934358 
1450236966.824645, -0.092636, 0.175710, -0.871813, -0.439612, 295.466672, 108.097696 
1460242232.754081, -0.090040, 0.178556, -0.879494, -0.423395, 296.429366, 110.268262 
1470247498.683518, -0.087372, 0.181366, -0.886872, -0.407043, 297.433412, 112.445748 
1480252764.612954, -0.084630, 0.184137, -0.893946, -0.390564, 298.479415, 114.629837 
1490258030.542391, -0.081816, 0.186867, -0.900713, -0.373961, 299.567997, 116.820201 
1500263296.471827, -0.078931, 0.189556, -0.907171, -0.357242, 300.699797, 119.016499 
1510268562.401264, -0.075974, 0.192200, -0.913318, -0.340412, 301.875471, 121.218376 
1520273828.330700, -0.072947, 0.194798, -0.919153, -0.323477, 303.095693, 123.425465 
1530279094.260137, -0.069850, 0.197350, -0.924672, -0.306441, 304.361156, 125.637381 
1540284360.189574, -0.066684, 0.199852, -0.929875, -0.289312, 305.672572, 127.853726 
1550289626.119010, -0.063450, 0.202304, -0.934761, -0.272096, 307.030671, 130.074082 
1560294892.048447, -0.060149, 0.204703, -0.939327, -0.254797, 308.436203, 132.298015 
1570300157.977883, -0.056781, 0.207048, -0.943572, -0.237422, 309.889939, 134.525069 
1580305423.907320, -0.053347, 0.209338, -0.947494, -0.219977, 311.392668, 136.754769 
1590310689.836756, -0.049849, 0.211570, -0.951094, -0.202468, 312.945201, 138.986619 
1600315955.766193, -0.046286, 0.213744, -0.954370, -0.184901, 314.548368, 141.220096 
1610321221.695629, -0.042661, 0.215857, -0.957320, -0.167282, 316.203022, 143.454657 
1620326487.625066, -0.038974, 0.217908, -0.959944, -0.149616, 317.910036, 145.689728 
1630331753.554502, -0.035226, 0.219896, -0.962242, -0.131911, 319.670305, 147.924712 
1640337019.483939, -0.031419, 0.221818, -0.964212, -0.114171, 321.484745, 150.158980 
1650342285.413375, -0.027553, 0.223674, -0.965854, -0.096404, 323.354296, 152.391871 
1660347551.342812, -0.023630, 0.225462, -0.967168, -0.078614, 325.279917, 154.622694 
1670352817.272249, -0.019651, 0.227180, -0.968154, -0.060809, 327.262591, 156.850722 
1680358083.201685, -0.015617, 0.228827, -0.968811, -0.042994, 329.303323, 159.075193 
1690363349.131122, -0.011529, 0.230401, -0.969140, -0.025175, 331.403140, 161.295303 
1700368615.060558, -0.007389, 0.231902, -0.969140, -0.007358, 333.563091, 163.510212 
1710373880.989995, -0.003198, 0.233327, -0.968811, 0.010450, 335.784247, 165.719034 
1720379146.919431, 0.001042, 0.234676, -0.968155, 0.028244, 338.067701, 167.920840 
1730384412.848868, 0.005330, 0.235947, -0.967171, 0.046017, 340.414569, 170.114654 
1740389678.778304, 0.009665, 0.237138, -0.965859, 0.063764, 342.825986, 172.299447 
1750394944.707741, 0.014046, 0.238249, -0.964221, 0.081478, 345.303111, 174.474141 
1760400210.637177, 0.018469, 0.239278, -0.962258, 0.099154, 347.847120, 176.637603 
1770405476.566614, 0.022936, 0.240224, -0.959969, 0.116785, 350.459212, 178.788639 
1780410742.496051, 0.027442, 0.241085, -0.957356, 0.134366, 353.140604, 180.925998 
1790416008.425487, 0.031988, 0.241861, -0.954421, 0.151889, 355.892532, 183.048362 
1800421274.354924, 0.036570, 0.242551, -0.951163, 0.169351, 358.716250, 185.154349 
1810426540.284360, 0.041189, 0.243153, -0.947585, 0.186744, 361.613026, 187.242505 
1820431806.213797, 0.045841, 0.243666, -0.943689, 0.204063, 364.584148, 189.311302 
1830437072.143233, 0.050526, 0.244089, -0.939474, 0.221301, 367.630912, 191.359137 
1840442338.072670, 0.055241, 0.244422, -0.934944, 0.238454, 370.754632, 193.384324 
1850447604.002106, 0.059985, 0.244663, -0.930099, 0.255515, 373.956628, 195.385093 
1860452869.931543, 0.064756, 0.244811, -0.924942, 0.272478, 377.238232, 197.359587 
1870458135.860980, 0.069552, 0.244865, -0.919475, 0.289338, 380.600779, 199.305854 
1880463401.790416, 0.074371, 0.244825, -0.913699, 0.306089, 384.045612, 201.221847 
1890468667.719852, 0.079212, 0.244689, -0.907617, 0.322725, 387.574070, 203.105418 
1900473933.649289, 0.084072, 0.244458, -0.901231, 0.339241, 391.187495, 204.954314 
1910479199.578726, 0.088949, 0.244129, -0.894543, 0.355631, 394.887220, 206.766169 
1920484465.508162, 0.093843, 0.243703, -0.887556, 0.371889, 398.674570, 208.538507 
1930489731.437599, 0.098750, 0.243179, -0.880273, 0.388011, 402.550858, 210.268730 
1940494997.367035, 0.103668, 0.242556, -0.872696, 0.403990, 406.517378, 211.954116 
1950500263.296472, 0.108597, 0.241833, -0.864827, 0.419822, 410.575402, 213.591815 
1960505529.225908, 0.113533, 0.241010, -0.856670, 0.435500, 414.726174, 215.178842 
1970510795.155345, 0.118475, 0.240087, -0.848228, 0.451020, 418.970905, 216.712074 
1980516061.084782, 0.123420, 0.239062, -0.839503, 0.466377, 423.310765, 218.188245 
1990521327.014218, 0.128367, 0.237936, -0.830500, 0.481565, 427.746877, 219.603937 
2000526592.943655, 0.133314, 0.236708, -0.821220, 0.496579, 432.280311, 220.955581 
2010531858.873091, 0.138258, 0.235378, -0.811668, 0.511414, 436.912073, 222.239449 
2020537124.802528, 0.143197, 0.233945, -0.801847, 0.526065, 441.643100, 223.451647 
2030542390.731964, 0.148129, 0.232409, -0.791760, 0.540528, 446.474245, 224.588116 
2040547656.661401, 0.153052, 0.230770, -0.781411, 0.554797, 451.406274, 225.644621 
2050552922.590837, 0.157965, 0.229028, -0.770804, 0.568867, 456.439848, 226.616752 
2060558188.520274, 0.162864, 0.227183, -0.759943, 0.582735, 461.575518, 227.499917 
2070563454.449710, 0.167747, 0.225234, -0.748831, 0.596395, 466.813706, 228.289340 
2080568720.379147, 0.172613, 0.223181, -0.737472, 0.609842, 472.154697, 228.980056 
2090573986.308583, 0.177459, 0.221025, -0.725871, 0.623073, 477.598622, 229.566910 
2100579252.238020, 0.182284, 0.218766, -0.714032, 0.636083, 483.145443, 230.044555 
2110584518.167457, 0.187084, 0.216403, -0.701958, 0.648867, 488.794938, 230.407449 
2120589784.096893, 0.191858, 0.213937, -0.689654, 0.661422, 494.546681, 230.649854 
2130595050.026330, 0.196603, 0.211367, -0.677125, 0.673742, 500.400029, 230.765838 
2140600315.955766, 0.201318, 0.208695, -0.664375, 0.685825, 506.354099, 230.749278 
2150605581.885203, 0.205999, 0.205920, -0.651408, 0.697666, 512.407750, 230.593856 
2160610847.814639, 0.210646, 0.203044, -0.638230, 0.709260, 518.559558, 230.293069 
2170616113.744076, 0.215255, 0.200065, -0.624844, 0.720605, 524.807801, 229.840231 
2180621379.673512, 0.219825, 0.196984, -0.611256, 0.731697, 531.150432, 229.228479 
2190626645.602949, 0.224353, 0.193803, -0.597470, 0.742532, 537.585054, 228.450785 
2200631911.532386, 0.228838, 0.190521, -0.583491, 0.753106, 544.108900, 227.499961 
2210637177.461822, 0.233276, 0.187140, -0.569324, 0.763416, 550.718805, 226.368675 
2220642443.391258, 0.237666, 0.183658, -0.554974, 0.773458, 557.411180, 225.049467 
2230647709.320695, 0.242005, 0.180079, -0.540447, 0.783230, 564.181987, 223.534759 
2240652975.250132, 0.246293, 0.176401, -0.525747, 0.792728, 571.026716, 221.816883 
2250658241.179568, 0.250525, 0.172626, -0.510879, 0.801949, 577.940352, 219.888098 
2260663507.109005, 0.254700, 0.168754, -0.495849, 0.810890, 584.917352, 217.740618 
2270668773.038442, 0.258817, 0.164787, -0.480662, 0.819549, 591.951623, 215.366640 
2280674038.967878, 0.262872, 0.160725, -0.465324, 0.827921, 599.036490, 212.758375 
2290679304.897314, 0.266865, 0.156569, -0.449839, 0.836006, 606.164675, 209.908083 
2300684570.826751, 0.270792, 0.152321, -0.434213, 0.843799, 613.328278, 206.808116 
2310689836.756187, 0.274651, 0.147980, -0.418453, 0.851300, 620.518747, 203.450954 
2320695102.685624, 0.278441, 0.143549, -0.402562, 0.858504, 627.726869, 199.829259 
2330700368.615061, 0.282160, 0.139028, -0.386547, 0.865411, 634.942747, 195.935918 
2340705634.544497, 0.285805, 0.134418, -0.370414, 0.872018, 642.155790, 191.764102 
2350710900.473934, 0.289374, 0.129722, -0.354167, 0.878322, 649.354701, 187.307321 
2360716166.403370, 0.292866, 0.124939, -0.337814, 0.884323, 656.527477, 182.559484 
2370721432.332807, 0.296279, 0.120071, -0.321359, 0.890018, 663.661402, 177.514970 
2380726698.262243, 0.299610, 0.115120, -0.304808, 0.895405, 670.743055, 172.168685 
2390731964.191680, 0.302857, 0.110087, -0.288167, 0.900482, 677.758323, 166.516140 
2400737230.121117, 0.306020, 0.104973, -0.271442, 0.905249, 684.692414, 160.553521 
2410742496.050553, 0.309095, 0.099780, -0.254639, 0.909704, 691.529885, 154.277762 
2420747761.979990, 0.312081, 0.094510, -0.237763, 0.913846, 698.254673, 147.686621 
2430753027.909426, 0.314977, 0.089163, -0.220820, 0.917673, 704.850133, 140.778754 
2440758293.838862, 0.317779, 0.083741, -0.203817, 0.921184, 711.299089, 133.553790 
2450763559.768299, 0.320488, 0.078247, -0.186759, 0.924379, 717.583893, 126.012404 
2460768825.697736, 0.323100, 0.072682, -0.169653, 0.927256, 723.686486, 118.156387 
2470774091.627172, 0.325614, 0.067047, -0.152503, 0.929815, 729.588477, 109.988714 
2480779357.556609, 0.328029, 0.061344, -0.135316, 0.932056, 735.271230, 101.513605 
2490784623.486045, 0.330342, 0.055575, -0.118099, 0.933977, 740.715951, 92.736578 
2500789889.415482, 0.332553, 0.049742, -0.100856, 0.935578, 745.903796, 83.664503 
2510795155.344918, 0.334660, 0.043846, -0.083594, 0.936860, 750.815978, 74.305636 
2520800421.274355, 0.336660, 0.037890, -0.066320, 0.937821, 755.433887, 64.669654 
2530805687.203792, 0.338553, 0.031876, -0.049038, 0.938462, 759.739209, 54.767671 
2540810953.133228, 0.340337, 0.025805, -0.031755, 0.938784, 763.714061, 44.612244 
2550816219.062665, 0.342011, 0.019679, -0.014477, 0.938785, 767.341119, 34.217370 
2560821484.992101, 0.343573, 0.013501, 0.002790, 0.938467, 770.603757, 23.598462 
2570826750.921537, 0.345021, 0.007273, 0.020041, 0.937829, 773.486179, 12.772318 
2580832016.850974, 0.346356, 0.000996, 0.037269, 0.936873, 775.973561, 1.757066 
2590837282.780411, 0.347574, -0.005327, 0.054468, 0.935599, 778.052177, -9.427896 
2600842548.709847, 0.348676, -0.011693, 0.071633, 0.934007, 779.709529, -20.761983 
2610847814.639284, 0.349659, -0.018102, 0.088757, 0.932099, 780.934471, -32.223519 
2620853080.568720, 0.350523, -0.024551, 0.105835, 0.929876, 781.717315, -43.789845 
2630858346.498157, 0.351266, -0.031036, 0.122861, 0.927338, 782.049940, -55.437443 
2640863612.427593, 0.351888, -0.037557, 0.139828, 0.924486, 781.925874, -67.142071 
2650868878.357030, 0.352388, -0.044110, 0.156732, 0.921323, 781.340375, -78.878906 
2660874144.286467, 0.352763, -0.050694, 0.173567, 0.917849, 780.290486, -90.622702 
2670879410.215903, 0.353015, -0.057306, 0.190326, 0.914066, 778.775081, -102.347952 
2680884676.145340, 0.353140, -0.063944, 0.207004, 0.909976, 776.794890, -114.029049 
2690889942.074776, 0.353140, -0.070605, 0.223596, 0.905579, 774.352503, -125.640461 
2700895208.004213, 0.353012, -0.077286, 0.240095, 0.900879, 771.452364, -137.156896 
2710900473.933649, 0.352757, -0.083986, 0.256496, 0.895877, 768.100735, -148.553471 
2720905739.863086, 0.352373, -0.090702, 0.272794, 0.890574, 764.305655, -159.805874 
2730911005.792522, 0.351860, -0.097432, 0.288983, 0.884974, 760.076869, -170.890520 
2740916271.721959, 0.351217, -0.104172, 0.305057, 0.879078, 755.425752, -181.784700 
2750921537.651396, 0.350444, -0.110920, 0.321011, 0.872889, 750.365209, -192.466715 
2760926803.580832, 0.349540, -0.117675, 0.336840, 0.866409, 744.909567, -202.916001 
2770932069.510269, 0.348504, -0.124433, 0.352538, 0.859641, 739.074458, -213.113241 
2780937335.439705, 0.347337, -0.131191, 0.368101, 0.852587, 732.876683, -223.040462 
2790942601.369142, 0.346038, -0.137947, 0.383522, 0.845250, 726.334080, -232.681111 
2800947867.298578, 0.344606, -0.144699, 0.398797, 0.837633, 719.465376, -242.020122 
2810953133.228015, 0.343042, -0.151444, 0.413920, 0.829739, 712.290044, -251.043965 
2820958399.157452, 0.341344, -0.158179, 0.428887, 0.821571, 704.828156, -259.740674 
2830963665.086888, 0.339514, -0.164902, 0.443693, 0.813131, 697.100233, -268.099865 
2840968931.016325, 0.337550, -0.171609, 0.458332, 0.804424, 689.127104, -276.112737 
2850974196.945761, 0.335454, -0.178299, 0.472800, 0.795452, 680.929767, -283.772054 
2860979462.875197, 0.333224, -0.184968, 0.487092, 0.786219, 672.529250, -291.072122 
2870984728.804634, 0.330861, -0.191615, 0.501203, 0.776729, 663.946491, -298.008746 
2880989994.734071, 0.328365, -0.198236, 0.515128, 0.766984, 655.202213, -304.579181 
2890995260.663507, 0.325737, -0.204828, 0.528863, 0.756988, 646.316820, -310.782072 
2901000526.592944, 0.322975, -0.211390, 0.542404, 0.746746, 637.310295, -316.617384 
2911005792.522380, 0.320082, -0.217918, 0.555746, 0.736261, 628.202109, -322.086327 
2921011058.451817, 0.317056, -0.224409, 0.568884, 0.725537, 619.011143, -327.191279 
2931016324.381253, 0.313899, -0.230861, 0.581814, 0.714578, 609.755623, -331.935698 
2941021590.310690, 0.310611, -0.237272, 0.594533, 0.703388, 600.453056, -336.324036 
2951026856.240127, 0.307191, -0.243638, 0.607035, 0.691970, 591.120187, -340.361651 
2961032122.169563, 0.303642, -0.249958, 0.619318, 0.680330, 581.772958, -344.054720 
2971037388.099000, 0.299964, -0.256227, 0.631376, 0.668472, 572.426480, -347.410147 
2981042654.028436, 0.296156, -0.262444, 0.643206, 0.656399, 563.095014, -350.435480 
2991047919.957872, 0.292220, -0.268607, 0.654804, 0.644117, 553.791958, -353.138827 
3001053185.887309, 0.288157, -0.274711, 0.666167, 0.631629, 544.529844, -355.528774 
3011058451.816746, 0.283967, -0.280756, 0.677291, 0.618941, 535.320339, -357.614305 
3021063717.746182, 0.279652, -0.286737, 0.688171, 0.606057, 526.174252, -359.404734 
3031068983.675619, 0.275212, -0.292654, 0.698806, 0.592981, 517.101552, -360.909631 
3041074249.605055, 0.270648, -0.298502, 0.709191, 0.579719, 508.111384, -362.138758 
3051079515.534492, 0.265961, -0.304279, 0.719323, 0.566274, 499.212090, -363.102010 
3061084781.463928, 0.261153, -0.309984, 0.729199, 0.552653, 490.411237, -363.809361 
3071090047.393365, 0.256224, -0.315612, 0.738816, 0.538859, 481.715645, -364.270811 
3081095313.322802, 0.251175, -0.321163, 0.748171, 0.524898, 473.131417, -364.496338 
3091100579.252238, 0.246009, -0.326633, 0.757261, 0.510775, 464.663971, -364.495861 
3101105845.181675, 0.240725, -0.332019, 0.766083, 0.496495, 456.318076, -364.279203 
3111111111.111111, 0.235327, -0.337320, 0.774635, 0.482063, 448.097883, -363.856054 
3121116377.040547, 0.229814, -0.342533, 0.782913, 0.467484, 440.006960, -363.235944 
3131121642.969984, 0.224188, -0.347655, 0.790916, 0.452763, 432.048330, -362.428221 
3141126908.899421, 0.218451, -0.352685, 0.798640, 0.437906, 424.224501, -361.442025 
3151132174.828857, 0.212605, -0.357619, 0.806085, 0.422918, 416.537503, -360.286276 
3161137440.758294, 0.206651, -0.362456, 0.813246, 0.407804, 408.988920, -358.969651 
3171142706.687730, 0.200590, -0.367192, 0.820124, 0.392569, 401.579922, -357.500580 
3181147972.617167, 0.194425, -0.371827, 0.826714, 0.377219, 394.311298, -355.887231 
3191153238.546604, 0.188157, -0.376357, 0.833016, 0.361760, 387.183483, -354.137505 
3201158504.476040, 0.181788, -0.380780, 0.839027, 0.346196, 380.196591, -352.259032 
3211163770.405477, 0.175319, -0.385095, 0.844746, 0.330534, 373.350439, -350.259166 
3221169036.334913, 0.168753, -0.389298, 0.850172, 0.314779, 366.644575, -348.144985 
3231174302.264350, 0.162092, -0.393389, 0.855303, 0.298935, 360.078303, -345.923291 
3241179568.193786, 0.155337, -0.397364, 0.860137, 0.283010, 353.650706, -343.600609 
3251184834.123223, 0.148491, -0.401221, 0.864673, 0.267008, 347.360668, -341.183195 
3261190100.052660, 0.141555, -0.404960, 0.868910, 0.250935, 341.206897, -338.677036 
