# stacked metamaterial geometry 
# f [Hz], L [0.001 m]
# Unitcell size lx, ly, lz = 10, 10, 99.9308 at center position x = 0 y = 0 z = 0
# Definition of material properties: 
#name =copper,type =const,Kappa =56000000,
#name =FR4,Epsilon =4.4,Kappa =0.048957,type =const,
#name =copperSquares,type =const,Kappa =56000000,
#name =air,type =const,Epsilon =1,
## layer number 1:
# rect patch made of copper. lx, ly, lz = 10, 10, 0.5 at center position x = 0 y = 0 z = -0.25
# background material (if any) is air
# layer number 2:
# rect patch made of FR4. lx, ly, lz = 10, 10, 0.4 at center position x = 0 y = 0 z = -0.7
# background material (if any) is air
# Re/Im parts of the scattering parameters S11 (refl.) and S21 (transm.) and the real and imaginary part of the impedance as a function of frequency 
# first column is frequency, second and third columns are Re/Im of S11 and S21, respectively.
1000000000.000000, 0.989048, -0.094610, -0.000000, 0.000000, 532.990498, -7858.502484 
1010005265.929437, 0.985602, -0.126418, -0.000000, 0.000000, 293.404710, -5883.760534 
1020010531.858873, 0.981138, -0.158108, -0.000000, 0.000000, 183.811243, -4698.605487 
1030015797.788310, 0.975660, -0.189649, -0.000000, 0.000000, 124.905941, -3908.533477 
1040021063.717746, 0.969172, -0.221009, -0.000000, 0.000000, 89.736655, -3344.116258 
1050026329.647183, 0.961679, -0.252155, -0.000000, 0.000000, 67.125341, -2920.625780 
1060031595.576619, 0.953189, -0.283056, -0.000000, 0.000000, 51.765838, -2591.012064 
1070036861.506056, 0.943708, -0.313679, -0.000000, 0.000000, 40.879621, -2327.063167 
1080042127.435492, 0.933245, -0.343994, -0.000000, 0.000000, 32.898788, -2110.838143 
1090047393.364929, 0.921809, -0.373967, -0.000000, 0.000000, 26.884851, -1930.384136 
1100052659.294365, 0.909411, -0.403569, -0.000000, 0.000000, 22.248592, -1777.431091 
1110057925.223802, 0.896063, -0.432769, -0.000000, 0.000000, 18.605189, -1646.075084 
1120063191.153239, 0.881776, -0.461535, -0.000000, 0.000000, 15.694823, -1531.988731 
1130068457.082675, 0.866565, -0.489837, -0.000000, 0.000000, 13.337035, -1431.927955 
1140073723.012112, 0.850444, -0.517646, -0.000000, 0.000000, 11.403385, -1343.412995 
1150078988.941548, 0.833428, -0.544932, -0.000000, 0.000000, 9.800484, -1264.515841 
1160084254.870985, 0.815534, -0.571666, -0.000000, 0.000000, 8.459142, -1193.714874 
1170089520.800421, 0.796780, -0.597819, -0.000000, 0.000000, 7.327239, -1129.793144 
1180094786.729858, 0.777183, -0.623364, -0.000000, 0.000000, 6.364923, -1071.765751 
1190100052.659294, 0.756763, -0.648273, -0.000000, 0.000000, 5.541315, -1018.827043 
1200105318.588731, 0.735541, -0.672518, 0.000000, 0.000000, 4.832195, -970.311608 
1210110584.518167, 0.713537, -0.696075, 0.000000, 0.000000, 4.218359, -925.665023 
1220115850.447604, 0.690774, -0.718917, 0.000000, 0.000000, 3.684427, -884.421633 
1230121116.377041, 0.667274, -0.741019, 0.000000, 0.000000, 3.217966, -846.187463 
1240126382.306477, 0.643061, -0.762358, 0.000000, 0.000000, 2.808844, -810.626925 
1250131648.235914, 0.618160, -0.782909, 0.000000, 0.000000, 2.448735, -777.452388 
1260136914.165350, 0.592596, -0.802650, 0.000000, 0.000000, 2.130752, -746.415893 
1270142180.094787, 0.566396, -0.821559, 0.000000, 0.000000, 1.849159, -717.302540 
1280147446.024223, 0.539586, -0.839616, 0.000000, 0.000000, 1.599147, -689.925147 
1290152711.953660, 0.512194, -0.856799, 0.000000, 0.000000, 1.376663, -664.119914 
1300157977.883096, 0.484249, -0.873090, 0.000000, 0.000000, 1.178272, -639.742881 
1310163243.812533, 0.455779, -0.888471, 0.000000, 0.000000, 1.001046, -616.666999 
1320168509.741970, 0.426814, -0.902924, 0.000000, 0.000000, 0.842480, -594.779718 
1330173775.671406, 0.397385, -0.916432, 0.000000, 0.000000, 0.700422, -573.980970 
1340179041.600842, 0.367522, -0.928981, 0.000000, 0.000000, 0.573009, -554.181475 
1350184307.530279, 0.337257, -0.940556, 0.000000, 0.000000, 0.458631, -535.301326 
1360189573.459716, 0.306622, -0.951144, 0.000000, 0.000000, 0.355884, -517.268781 
1370194839.389152, 0.275649, -0.960732, 0.000000, 0.000000, 0.263542, -500.019244 
1380200105.318589, 0.244370, -0.969309, 0.000000, 0.000000, 0.180531, -483.494388 
1390205371.248025, 0.212820, -0.976865, 0.000000, 0.000000, 0.105908, -467.641412 
1400210637.177462, 0.181032, -0.983391, 0.000000, 0.000000, 0.038839, -452.412394 
1410215903.106898, 0.149039, -0.988880, 0.000000, 0.000000, -0.021412, -437.763735 
1420221169.036335, 0.116877, -0.993325, 0.000000, 0.000000, -0.075498, -423.655678 
1430226434.965771, 0.084578, -0.996719, 0.000000, 0.000000, -0.124000, -410.051892 
1440231700.895208, 0.052178, -0.999060, 0.000000, 0.000000, -0.167436, -396.919100 
1450236966.824645, 0.019712, -1.000343, 0.000000, 0.000000, -0.206268, -384.226767 
1460242232.754081, -0.012785, -1.000566, 0.000000, 0.000000, -0.240913, -371.946813 
1470247498.683518, -0.045279, -0.999729, 0.000000, 0.000000, -0.271741, -360.053370 
1480252764.612954, -0.077735, -0.997833, 0.000000, 0.000000, -0.299088, -348.522561 
1490258030.542391, -0.110118, -0.994877, 0.000000, 0.000000, -0.323255, -337.332310 
1500263296.471827, -0.142392, -0.990866, 0.000000, 0.000000, -0.344517, -326.462169 
1510268562.401264, -0.174523, -0.985803, 0.000000, 0.000000, -0.363119, -315.893169 
1520273828.330700, -0.206476, -0.979694, 0.000000, 0.000000, -0.379286, -305.607678 
1530279094.260137, -0.238217, -0.972543, 0.000000, 0.000000, -0.393222, -295.589288 
1540284360.189574, -0.269712, -0.964359, 0.000000, 0.000000, -0.405110, -285.822700 
1550289626.119010, -0.300926, -0.955151, 0.000000, 0.000000, -0.415121, -276.293632 
1560294892.048447, -0.331826, -0.944928, 0.000000, 0.000000, -0.423408, -266.988727 
1570300157.977883, -0.362379, -0.933700, 0.000000, 0.000000, -0.430112, -257.895477 
1580305423.907320, -0.392551, -0.921480, 0.000000, -0.000000, -0.435361, -249.002153 
1590310689.836756, -0.422310, -0.908281, 0.000000, -0.000000, -0.439274, -240.297738 
1600315955.766193, -0.451624, -0.894117, 0.000000, -0.000000, -0.441960, -231.771869 
1610321221.695629, -0.480462, -0.879003, 0.000000, -0.000000, -0.443517, -223.414788 
1620326487.625066, -0.508792, -0.862955, 0.000000, -0.000000, -0.444039, -215.217290 
1630331753.554502, -0.536583, -0.845991, 0.000000, -0.000000, -0.443608, -207.170681 
1640337019.483939, -0.563807, -0.828129, 0.000000, -0.000000, -0.442305, -199.266738 
1650342285.413375, -0.590434, -0.809388, 0.000000, -0.000000, -0.440199, -191.497671 
1660347551.342812, -0.616435, -0.789788, 0.000000, -0.000000, -0.437359, -183.856093 
1670352817.272249, -0.641783, -0.769351, 0.000000, -0.000000, -0.433845, -176.334989 
1680358083.201685, -0.666450, -0.748098, 0.000000, -0.000000, -0.429714, -168.927682 
1690363349.131122, -0.690410, -0.726053, 0.000000, -0.000000, -0.425021, -161.627816 
1700368615.060558, -0.713638, -0.703239, 0.000000, -0.000000, -0.419812, -154.429327 
1710373880.989995, -0.736108, -0.679681, 0.000000, -0.000000, -0.414135, -147.326420 
1720379146.919431, -0.757798, -0.655404, 0.000000, -0.000000, -0.408032, -140.313552 
1730384412.848868, -0.778684, -0.630434, 0.000000, -0.000000, -0.401541, -133.385414 
1740389678.778304, -0.798743, -0.604799, 0.000000, -0.000000, -0.394701, -126.536907 
1750394944.707741, -0.817956, -0.578526, 0.000000, -0.000000, -0.387544, -119.763133 
1760400210.637177, -0.836301, -0.551644, 0.000000, -0.000000, -0.380102, -113.059377 
1770405476.566614, -0.853759, -0.524180, 0.000000, -0.000000, -0.372406, -106.421092 
1780410742.496051, -0.870312, -0.496165, 0.000000, -0.000000, -0.364483, -99.843885 
1790416008.425487, -0.885943, -0.467628, 0.000000, -0.000000, -0.356359, -93.323510 
1800421274.354924, -0.900636, -0.438601, 0.000000, -0.000000, -0.348058, -86.855850 
1810426540.284360, -0.914375, -0.409113, 0.000000, -0.000000, -0.339603, -80.436907 
1820431806.213797, -0.927145, -0.379198, 0.000000, -0.000000, -0.331014, -74.062795 
1830437072.143233, -0.938935, -0.348886, 0.000000, -0.000000, -0.322311, -67.729729 
1840442338.072670, -0.949731, -0.318211, 0.000000, -0.000000, -0.313513, -61.434012 
1850447604.002106, -0.959524, -0.287204, 0.000000, -0.000000, -0.304637, -55.172031 
1860452869.931543, -0.968302, -0.255899, 0.000000, -0.000000, -0.295699, -48.940246 
1870458135.860980, -0.976057, -0.224329, 0.000000, -0.000000, -0.286714, -42.735180 
1880463401.790416, -0.982781, -0.192527, 0.000000, -0.000000, -0.277697, -36.553415 
1890468667.719852, -0.988468, -0.160528, 0.000000, -0.000000, -0.268659, -30.391583 
1900473933.649289, -0.993112, -0.128365, 0.000000, -0.000000, -0.259614, -24.246357 
1910479199.578726, -0.996709, -0.096072, 0.000000, -0.000000, -0.250573, -18.114443 
1920484465.508162, -0.999255, -0.063684, -0.000000, -0.000000, -0.241547, -11.992579 
1930489731.437599, -1.000748, -0.031234, -0.000000, -0.000000, -0.232546, -5.877520 
1940494997.367035, -1.001187, 0.001244, -0.000000, -0.000000, -0.223578, 0.233964 
1950500263.296472, -1.000572, 0.033714, -0.000000, -0.000000, -0.214654, 6.345094 
1960505529.225908, -0.998904, 0.066143, -0.000000, -0.000000, -0.205781, 12.459094 
1970510795.155345, -0.996186, 0.098497, -0.000000, -0.000000, -0.196966, 18.579192 
1980516061.084782, -0.992420, 0.130742, -0.000000, -0.000000, -0.188217, 24.708629 
1990521327.014218, -0.987612, 0.162844, -0.000000, -0.000000, -0.179539, 30.850669 
2000526592.943655, -0.981766, 0.194770, -0.000000, -0.000000, -0.170940, 37.008599 
2010531858.873091, -0.974889, 0.226485, -0.000000, -0.000000, -0.162424, 43.185743 
2020537124.802528, -0.966988, 0.257958, -0.000000, -0.000000, -0.153998, 49.385465 
2030542390.731964, -0.958074, 0.289154, -0.000000, -0.000000, -0.145664, 55.611178 
2040547656.661401, -0.948154, 0.320041, -0.000000, -0.000000, -0.137429, 61.866351 
2050552922.590837, -0.937240, 0.350588, -0.000000, -0.000000, -0.129295, 68.154519 
2060558188.520274, -0.925343, 0.380762, -0.000000, -0.000000, -0.121267, 74.479287 
2070563454.449710, -0.912477, 0.410531, -0.000000, -0.000000, -0.113347, 80.844342 
2080568720.379147, -0.898656, 0.439866, -0.000000, -0.000000, -0.105539, 87.253461 
2090573986.308583, -0.883893, 0.468735, -0.000000, -0.000000, -0.097845, 93.710520 
2100579252.238020, -0.868205, 0.497108, -0.000000, -0.000000, -0.090267, 100.219505 
2110584518.167457, -0.851608, 0.524956, -0.000000, -0.000000, -0.082808, 106.784520 
2120589784.096893, -0.834120, 0.552249, -0.000000, -0.000000, -0.075469, 113.409802 
2130595050.026330, -0.815759, 0.578960, -0.000000, -0.000000, -0.068252, 120.099726 
2140600315.955766, -0.796545, 0.605061, -0.000000, -0.000000, -0.061157, 126.858825 
2150605581.885203, -0.776499, 0.630524, -0.000000, -0.000000, -0.054186, 133.691799 
2160610847.814639, -0.755640, 0.655324, -0.000000, -0.000000, -0.047339, 140.603529 
2170616113.744076, -0.733991, 0.679434, -0.000000, -0.000000, -0.040617, 147.599093 
2180621379.673512, -0.711576, 0.702829, -0.000000, -0.000000, -0.034019, 154.683784 
2190626645.602949, -0.688416, 0.725486, -0.000000, -0.000000, -0.027546, 161.863123 
2200631911.532386, -0.664538, 0.747380, -0.000000, -0.000000, -0.021198, 169.142882 
2210637177.461822, -0.639965, 0.768489, -0.000000, -0.000000, -0.014972, 176.529102 
2220642443.391258, -0.614723, 0.788791, -0.000000, 0.000000, -0.008870, 184.028116 
2230647709.320695, -0.588839, 0.808265, -0.000000, 0.000000, -0.002889, 191.646570 
2240652975.250132, -0.562340, 0.826891, -0.000000, 0.000000, 0.002972, 199.391455 
2250658241.179568, -0.535253, 0.844649, -0.000000, 0.000000, 0.008714, 207.270126 
2260663507.109005, -0.507608, 0.861522, -0.000000, 0.000000, 0.014340, 215.290343 
2270668773.038442, -0.479432, 0.877490, -0.000000, 0.000000, 0.019851, 223.460293 
2280674038.967878, -0.450755, 0.892539, -0.000000, 0.000000, 0.025250, 231.788635 
2290679304.897314, -0.421608, 0.906651, -0.000000, 0.000000, 0.030541, 240.284536 
2300684570.826751, -0.392020, 0.919813, -0.000000, 0.000000, 0.035725, 248.957715 
2310689836.756187, -0.362022, 0.932011, -0.000000, 0.000000, 0.040806, 257.818490 
2320695102.685624, -0.331647, 0.943232, -0.000000, 0.000000, 0.045788, 266.877834 
2330700368.615061, -0.300925, 0.953464, -0.000000, 0.000000, 0.050675, 276.147428 
2340705634.544497, -0.269888, 0.962698, -0.000000, 0.000000, 0.055471, 285.639728 
2350710900.473934, -0.238569, 0.970922, -0.000000, 0.000000, 0.060182, 295.368036 
2360716166.403370, -0.207001, 0.978128, -0.000000, 0.000000, 0.064812, 305.346577 
2370721432.332807, -0.175217, 0.984310, -0.000000, 0.000000, 0.069368, 315.590586 
2380726698.262243, -0.143249, 0.989460, -0.000000, 0.000000, 0.073855, 326.116409 
2390731964.191680, -0.111132, 0.993573, -0.000000, 0.000000, 0.078280, 336.941604 
2400737230.121117, -0.078899, 0.996645, -0.000000, 0.000000, 0.082652, 348.085067 
2410742496.050553, -0.046583, 0.998673, -0.000000, 0.000000, 0.086977, 359.567166 
2420747761.979990, -0.014218, 0.999653, -0.000000, 0.000000, 0.091264, 371.409894 
2430753027.909426, 0.018162, 0.999586, -0.000000, 0.000000, 0.095524, 383.637034 
2440758293.838862, 0.050522, 0.998471, -0.000000, 0.000000, 0.099767, 396.274358 
2450763559.768299, 0.082830, 0.996310, -0.000000, 0.000000, 0.104004, 409.349842 
2460768825.697736, 0.115051, 0.993104, -0.000000, 0.000000, 0.108247, 422.893912 
2470774091.627172, 0.147152, 0.988856, -0.000000, 0.000000, 0.112512, 436.939724 
2480779357.556609, 0.179099, 0.983572, -0.000000, 0.000000, 0.116813, 451.523483 
2490784623.486045, 0.210858, 0.977257, -0.000000, 0.000000, 0.121167, 466.684809 
2500789889.415482, 0.242397, 0.969917, 0.000000, 0.000000, 0.125593, 482.467154 
2510795155.344918, 0.273682, 0.961560, 0.000000, 0.000000, 0.130113, 498.918285 
2520800421.274355, 0.304680, 0.952194, 0.000000, 0.000000, 0.134748, 516.090835 
2530805687.203792, 0.335359, 0.941829, 0.000000, 0.000000, 0.139526, 534.042949 
2540810953.133228, 0.365687, 0.930476, 0.000000, 0.000000, 0.144476, 552.839031 
2550816219.062665, 0.395632, 0.918148, 0.000000, 0.000000, 0.149631, 572.550616 
2560821484.992101, 0.425163, 0.904856, 0.000000, 0.000000, 0.155028, 593.257388 
2570826750.921537, 0.454247, 0.890614, 0.000000, 0.000000, 0.160710, 615.048390 
2580832016.850974, 0.482856, 0.875438, 0.000000, 0.000000, 0.166726, 638.023436 
2590837282.780411, 0.510959, 0.859344, 0.000000, 0.000000, 0.173131, 662.294807 
2600842548.709847, 0.538526, 0.842347, 0.000000, 0.000000, 0.179989, 687.989262 
2610847814.639284, 0.565529, 0.824467, 0.000000, 0.000000, 0.187376, 715.250461 
2620853080.568720, 0.591938, 0.805721, 0.000000, 0.000000, 0.195377, 744.241884 
2630858346.498157, 0.617727, 0.786129, 0.000000, 0.000000, 0.204094, 775.150383 
2640863612.427593, 0.642868, 0.765712, 0.000000, 0.000000, 0.213646, 808.190521 
2650868878.357030, 0.667335, 0.744492, 0.000000, 0.000000, 0.224175, 843.609914 
2660874144.286467, 0.691102, 0.722490, 0.000000, 0.000000, 0.235851, 881.695866 
2670879410.215903, 0.714144, 0.699729, 0.000000, 0.000000, 0.248877, 922.783659 
2680884676.145340, 0.736437, 0.676234, 0.000000, 0.000000, 0.263499, 967.267016 
2690889942.074776, 0.757957, 0.652028, 0.000000, 0.000000, 0.280021, 1015.611430 
2700895208.004213, 0.778682, 0.627139, 0.000000, 0.000000, 0.298814, 1068.371305 
2710900473.933649, 0.798590, 0.601590, 0.000000, 0.000000, 0.320345, 1126.212268 
2720905739.863086, 0.817661, 0.575411, 0.000000, 0.000000, 0.345201, 1189.940544 
2730911005.792522, 0.835873, 0.548627, 0.000000, 0.000000, 0.374131, 1260.542170 
2740916271.721959, 0.853208, 0.521267, 0.000000, 0.000000, 0.408106, 1339.236096 
2750921537.651396, 0.869647, 0.493359, 0.000000, 0.000000, 0.448401, 1427.547298 
2760926803.580832, 0.885174, 0.464934, 0.000000, 0.000000, 0.496720, 1527.409265 
2770932069.510269, 0.899773, 0.436021, 0.000000, 0.000000, 0.555384, 1641.310637 
2780937335.439705, 0.913426, 0.406650, 0.000000, 0.000000, 0.627621, 1772.509890 
2790942601.369142, 0.926122, 0.376852, 0.000000, 0.000000, 0.718035, 1925.357990 
2800947867.298578, 0.937845, 0.346658, 0.000000, -0.000000, 0.833382, 2105.798190 
2810953133.228015, 0.948584, 0.316101, 0.000000, -0.000000, 0.983908, 2322.167808 
2820958399.157452, 0.958328, 0.285212, 0.000000, -0.000000, 1.185792, 2586.538768 
2830963665.086888, 0.967066, 0.254023, 0.000000, -0.000000, 1.465834, 2917.072451 
2840968931.016325, 0.974789, 0.222568, 0.000000, -0.000000, 1.871150, 3342.413521 
2850974196.945761, 0.981490, 0.190880, 0.000000, -0.000000, 2.491086, 3910.529751 
2860979462.875197, 0.987160, 0.158991, 0.000000, -0.000000, 3.512791, 4708.311202 
2870984728.804634, 0.991794, 0.126935, 0.000000, -0.000000, 5.386060, 5911.095018 
2880989994.734071, 0.995388, 0.094746, 0.000000, -0.000000, 9.436773, 7933.620787 
2890995260.663507, 0.997938, 0.062458, 0.000000, -0.000000, 21.167551, 12050.378640 
2901000526.592944, 0.999440, 0.030104, 0.000000, -0.000000, 88.669583, 25019.957188 
2911005792.522380, 0.999894, -0.002281, 0.000000, -0.000000, 14964.987331, -329546.920978 
2921011058.451817, 0.999299, -0.034664, 0.000000, -0.000000, 62.949007, -21726.984072 
2931016324.381253, 0.997655, -0.067011, 0.000000, -0.000000, 16.282676, -11230.089742 
2941021590.310690, 0.994965, -0.099287, 0.000000, -0.000000, 7.148048, -7569.228132 
2951026856.240127, 0.991231, -0.131459, 0.000000, -0.000000, 3.915932, -5706.117914 
2961032122.169563, 0.986457, -0.163493, 0.000000, -0.000000, 2.421589, -4577.094209 
2971037388.099000, 0.980648, -0.195356, 0.000000, -0.000000, 1.614642, -3819.372438 
2981042654.028436, 0.973811, -0.227014, 0.000000, -0.000000, 1.131993, -3275.407890 
2991047919.957872, 0.965952, -0.258434, 0.000000, -0.000000, 0.821522, -2865.740522 
3001053185.887309, 0.957080, -0.289583, 0.000000, -0.000000, 0.610579, -2545.951505 
3011058451.816746, 0.947205, -0.320429, 0.000000, -0.000000, 0.460987, -2289.265170 
3021063717.746182, 0.936335, -0.350938, 0.000000, -0.000000, 0.351162, -2078.580422 
3031068983.675619, 0.924484, -0.381080, 0.000000, -0.000000, 0.268183, -1902.463192 
3041074249.605055, 0.911663, -0.410822, 0.000000, -0.000000, 0.203939, -1752.978555 
3051079515.534492, 0.897886, -0.440134, 0.000000, -0.000000, 0.153139, -1624.447295 
3061084781.463928, 0.883167, -0.468985, 0.000000, -0.000000, 0.112220, -1512.697516 
3071090047.393365, 0.867521, -0.497344, 0.000000, -0.000000, 0.078712, -1414.595663 
3081095313.322802, 0.850966, -0.525182, 0.000000, -0.000000, 0.050862, -1327.742395 
3091100579.252238, 0.833518, -0.552470, 0.000000, -0.000000, 0.027399, -1250.269426 
3101105845.181675, 0.815196, -0.579179, 0.000000, -0.000000, 0.007387, -1180.700290 
3111111111.111111, 0.796018, -0.605282, 0.000000, -0.000000, -0.009878, -1117.852730 
3121116377.040547, 0.776005, -0.630750, 0.000000, -0.000000, -0.024931, -1060.768884 
3131121642.969984, 0.755178, -0.655558, 0.000000, -0.000000, -0.038184, -1008.664442 
3141126908.899421, 0.733558, -0.679678, -0.000000, -0.000000, -0.049959, -960.891038 
3151132174.828857, 0.711169, -0.703087, -0.000000, -0.000000, -0.060510, -916.908009 
3161137440.758294, 0.688033, -0.725759, -0.000000, -0.000000, -0.070039, -876.260912 
3171142706.687730, 0.664175, -0.747671, -0.000000, -0.000000, -0.078706, -838.564990 
3181147972.617167, 0.639619, -0.768800, -0.000000, -0.000000, -0.086645, -803.492298 
3191153238.546604, 0.614391, -0.789123, -0.000000, -0.000000, -0.093960, -770.761586 
3201158504.476040, 0.588519, -0.808620, -0.000000, -0.000000, -0.100740, -740.130262 
3211163770.405477, 0.562027, -0.827269, -0.000000, -0.000000, -0.107057, -711.387968 
3221169036.334913, 0.534945, -0.845052, -0.000000, -0.000000, -0.112970, -684.351389 
3231174302.264350, 0.507301, -0.861949, -0.000000, -0.000000, -0.118529, -658.860040 
3241179568.193786, 0.479123, -0.877943, -0.000000, -0.000000, -0.123777, -634.772807 
3251184834.123223, 0.450440, -0.893017, -0.000000, -0.000000, -0.128748, -611.965110 
