# stacked metamaterial geometry 
# f [Hz], L [0.001 m]
# Unitcell size lx, ly, lz = 10, 10, 99.9308 at center position x = 0 y = 0 z = 0
# Definition of material properties: 
#name =copper,type =const,Kappa =56000000,
#name =FR4,Epsilon =4.4,Kappa =0.048957,type =const,
#name =copperSquares,type =const,Kappa =56000000,
#name =air,type =const,Epsilon =1,
## layer number 1:
# rect patch made of copper. lx, ly, lz = 10, 10, 0.5 at center position x = 0 y = 0 z = -0.25
# background material (if any) is air
# layer number 2:
# rect patch made of FR4. lx, ly, lz = 10, 10, 4 at center position x = 0 y = 0 z = -2.5
# background material (if any) is air
# Re/Im parts of the scattering parameters S11 (refl.) and S21 (transm.) and the real and imaginary part of the impedance as a function of frequency 
# first column is frequency, second and third columns are Re/Im of S11 and S21, respectively.
1000000000.000000, 0.994081, -0.090817, -0.000000, 0.000000, 161.748085, -8261.357030 
1010005265.929437, 0.990865, -0.123038, -0.000000, 0.000000, 75.421296, -6090.225730 
1020010531.858873, 0.986600, -0.155158, -0.000000, 0.000000, 39.537758, -4820.125989 
1030015797.788310, 0.981288, -0.187143, -0.000000, 0.000000, 21.847505, -3986.272458 
1040021063.717746, 0.974932, -0.218957, -0.000000, 0.000000, 12.148497, -3396.613682 
1050026329.647183, 0.967536, -0.250566, -0.000000, 0.000000, 6.439740, -2957.393127 
1060031595.576619, 0.959107, -0.281934, -0.000000, 0.000000, 2.911311, -2617.401095 
1070036861.506056, 0.949652, -0.313029, -0.000000, 0.000000, 0.656277, -2346.300384 
1080042127.435492, 0.939178, -0.343814, -0.000000, 0.000000, -0.816201, -2124.975888 
1090047393.364929, 0.927697, -0.374256, -0.000000, 0.000000, -1.788212, -1940.785031 
1100052659.294365, 0.915219, -0.404321, -0.000000, 0.000000, -2.429871, -1785.032071 
1110057925.223802, 0.901755, -0.433976, -0.000000, 0.000000, -2.847879, -1651.539443 
1120063191.153239, 0.887319, -0.463186, -0.000000, 0.000000, -3.111382, -1535.797749 
1130068457.082675, 0.871926, -0.491920, -0.000000, 0.000000, -3.266440, -1434.438284 
1140073723.012112, 0.855591, -0.520145, -0.000000, 0.000000, -3.344455, -1344.893784 
1150078988.941548, 0.838331, -0.547829, -0.000000, 0.000000, -3.367267, -1265.173462 
1160084254.870985, 0.820164, -0.574941, -0.000000, 0.000000, -3.350326, -1193.709783 
1170089520.800421, 0.801110, -0.601451, -0.000000, 0.000000, -3.304726, -1129.251647 
1180094786.729858, 0.781188, -0.627328, -0.000000, 0.000000, -3.238529, -1070.788367 
1190100052.659294, 0.760419, -0.652543, -0.000000, 0.000000, -3.157663, -1017.494554 
1200105318.588731, 0.738827, -0.677068, -0.000000, 0.000000, -3.066523, -968.689504 
1210110584.518167, 0.716434, -0.700876, -0.000000, 0.000000, -2.968392, -923.806814 
1220115850.447604, 0.693264, -0.723938, -0.000000, 0.000000, -2.865740, -882.371351 
1230121116.377041, 0.669344, -0.746230, -0.000000, 0.000000, -2.760429, -843.981565 
1240126382.306477, 0.644699, -0.767727, -0.000000, 0.000000, -2.653874, -808.295772 
1250131648.235914, 0.619356, -0.788404, -0.000000, 0.000000, -2.547144, -775.021389 
1260136914.165350, 0.593344, -0.808237, -0.000000, 0.000000, -2.441053, -743.906409 
1270142180.094787, 0.566690, -0.827206, -0.000000, 0.000000, -2.336215, -714.732598 
1280147446.024223, 0.539424, -0.845289, -0.000000, 0.000000, -2.233093, -687.310012 
1290152711.953660, 0.511577, -0.862466, 0.000000, 0.000000, -2.132031, -661.472552 
1300157977.883096, 0.483180, -0.878719, 0.000000, 0.000000, -2.033284, -637.074326 
1310163243.812533, 0.454263, -0.894028, 0.000000, 0.000000, -1.937035, -613.986664 
1320168509.741970, 0.424858, -0.908379, 0.000000, 0.000000, -1.843412, -592.095639 
1330173775.671406, 0.394999, -0.921754, 0.000000, 0.000000, -1.752499, -571.300013 
1340179041.600842, 0.364718, -0.934141, 0.000000, 0.000000, -1.664348, -551.509508 
1350184307.530279, 0.334048, -0.945525, -0.000000, 0.000000, -1.578984, -532.643360 
1360189573.459716, 0.303024, -0.955895, -0.000000, 0.000000, -1.496410, -514.629089 
1370194839.389152, 0.271680, -0.965240, -0.000000, 0.000000, -1.416615, -497.401459 
1380200105.318589, 0.240049, -0.973550, -0.000000, 0.000000, -1.339575, -480.901592 
1390205371.248025, 0.208168, -0.980817, -0.000000, 0.000000, -1.265254, -465.076203 
1400210637.177462, 0.176069, -0.987035, -0.000000, 0.000000, -1.193612, -449.876948 
1410215903.106898, 0.143790, -0.992195, -0.000000, 0.000000, -1.124602, -435.259858 
1420221169.036335, 0.111364, -0.996295, -0.000000, 0.000000, -1.058173, -421.184852 
1430226434.965771, 0.078827, -0.999331, -0.000000, 0.000000, -0.994270, -407.615311 
1440231700.895208, 0.046215, -1.001299, -0.000000, 0.000000, -0.932837, -394.517705 
1450236966.824645, 0.013561, -1.002199, -0.000000, 0.000000, -0.873816, -381.861271 
1460242232.754081, -0.019097, -1.002031, -0.000000, 0.000000, -0.817149, -369.617729 
1470247498.683518, -0.051725, -1.000796, -0.000000, 0.000000, -0.762775, -357.761032 
1480252764.612954, -0.084289, -0.998496, -0.000000, 0.000000, -0.710636, -346.267141 
1490258030.542391, -0.116753, -0.995134, -0.000000, 0.000000, -0.660673, -335.113835 
1500263296.471827, -0.149083, -0.990716, -0.000000, 0.000000, -0.612825, -324.280538 
1510268562.401264, -0.181245, -0.985247, -0.000000, 0.000000, -0.567036, -313.748160 
1520273828.330700, -0.213204, -0.978733, -0.000000, 0.000000, -0.523247, -303.498964 
1530279094.260137, -0.244926, -0.971183, -0.000000, 0.000000, -0.481401, -293.516445 
1540284360.189574, -0.276379, -0.962606, -0.000000, 0.000000, -0.441442, -283.785215 
1550289626.119010, -0.307529, -0.953010, -0.000000, 0.000000, -0.403314, -274.290911 
1560294892.048447, -0.338343, -0.942409, -0.000000, 0.000000, -0.366962, -265.020102 
1570300157.977883, -0.368789, -0.930812, -0.000000, 0.000000, -0.332333, -255.960212 
1580305423.907320, -0.398836, -0.918235, -0.000000, 0.000000, -0.299373, -247.099448 
1590310689.836756, -0.428452, -0.904689, -0.000000, 0.000000, -0.268030, -238.426736 
1600315955.766193, -0.457606, -0.890192, -0.000000, 0.000000, -0.238253, -229.931659 
1610321221.695629, -0.486269, -0.874757, -0.000000, 0.000000, -0.209990, -221.604409 
1620326487.625066, -0.514409, -0.858403, -0.000000, 0.000000, -0.183192, -213.435734 
1630331753.554502, -0.541999, -0.841147, -0.000000, 0.000000, -0.157810, -205.416894 
1640337019.483939, -0.569010, -0.823008, -0.000000, 0.000000, -0.133795, -197.539627 
1650342285.413375, -0.595414, -0.804005, -0.000000, 0.000000, -0.111099, -189.796105 
1660347551.342812, -0.621183, -0.784158, -0.000000, 0.000000, -0.089675, -182.178902 
1670352817.272249, -0.646292, -0.763488, -0.000000, 0.000000, -0.069476, -174.680969 
1680358083.201685, -0.670714, -0.742018, -0.000000, 0.000000, -0.050457, -167.295596 
1690363349.131122, -0.694424, -0.719770, -0.000000, 0.000000, -0.032572, -160.016395 
1700368615.060558, -0.717397, -0.696768, -0.000000, 0.000000, -0.015776, -152.837270 
1710373880.989995, -0.739611, -0.673035, -0.000000, 0.000000, -0.000025, -145.752399 
1720379146.919431, -0.761042, -0.648597, -0.000000, 0.000000, 0.014725, -138.756210 
1730384412.848868, -0.781668, -0.623479, -0.000000, 0.000000, 0.028517, -131.843364 
1740389678.778304, -0.801467, -0.597708, -0.000000, 0.000000, 0.041395, -125.008737 
1750394944.707741, -0.820420, -0.571310, -0.000000, 0.000000, 0.053401, -118.247406 
1760400210.637177, -0.838507, -0.544312, -0.000000, 0.000000, 0.064577, -111.554627 
1770405476.566614, -0.855709, -0.516744, -0.000000, 0.000000, 0.074965, -104.925829 
1780410742.496051, -0.872007, -0.488634, -0.000000, 0.000000, 0.084606, -98.356594 
1790416008.425487, -0.887386, -0.460010, -0.000000, 0.000000, 0.093542, -91.842648 
1800421274.354924, -0.901829, -0.430903, -0.000000, 0.000000, 0.101813, -85.379851 
1810426540.284360, -0.915320, -0.401343, -0.000000, 0.000000, 0.109461, -78.964179 
1820431806.213797, -0.927847, -0.371360, -0.000000, 0.000000, 0.116525, -72.591720 
1830437072.143233, -0.939394, -0.340986, -0.000000, 0.000000, 0.123046, -66.258662 
1840442338.072670, -0.949951, -0.310253, -0.000000, 0.000000, 0.129063, -59.961283 
1850447604.002106, -0.959506, -0.279192, -0.000000, 0.000000, 0.134617, -53.695942 
1860452869.931543, -0.968049, -0.247836, -0.000000, 0.000000, 0.139746, -47.459070 
1870458135.860980, -0.975569, -0.216217, -0.000000, 0.000000, 0.144491, -41.247164 
1880463401.790416, -0.982060, -0.184369, -0.000000, 0.000000, 0.148892, -35.056774 
1890468667.719852, -0.987514, -0.152324, -0.000000, 0.000000, 0.152986, -28.884503 
1900473933.649289, -0.991925, -0.120117, -0.000000, 0.000000, 0.156814, -22.726990 
1910479199.578726, -0.995287, -0.087781, -0.000000, 0.000000, 0.160415, -16.580912 
1920484465.508162, -0.997597, -0.055349, -0.000000, 0.000000, 0.163827, -10.442967 
1930489731.437599, -0.998852, -0.022857, -0.000000, 0.000000, 0.167092, -4.309878 
1940494997.367035, -0.999050, 0.009662, -0.000000, 0.000000, 0.170247, 1.821623 
1950500263.296472, -0.998190, 0.042173, -0.000000, 0.000000, 0.173333, 7.954801 
1960505529.225908, -0.996273, 0.074643, -0.000000, 0.000000, 0.176389, 14.092917 
1970510795.155345, -0.993300, 0.107036, -0.000000, 0.000000, 0.179454, 20.239246 
1980516061.084782, -0.989274, 0.139319, -0.000000, 0.000000, 0.182570, 26.397077 
1990521327.014218, -0.984198, 0.171457, -0.000000, 0.000000, 0.185777, 32.569721 
2000526592.943655, -0.978078, 0.203416, 0.000000, 0.000000, 0.189115, 38.760519 
2010531858.873091, -0.970919, 0.235162, 0.000000, 0.000000, 0.192625, 44.972850 
2020537124.802528, -0.962729, 0.266661, 0.000000, 0.000000, 0.196349, 51.210139 
2030542390.731964, -0.953515, 0.297880, 0.000000, 0.000000, 0.200329, 57.475862 
2040547656.661401, -0.943287, 0.328785, 0.000000, 0.000000, 0.204608, 63.773555 
2050552922.590837, -0.932056, 0.359343, 0.000000, 0.000000, 0.209229, 70.106824 
2060558188.520274, -0.919832, 0.389521, 0.000000, 0.000000, 0.214235, 76.479352 
2070563454.449710, -0.906629, 0.419286, 0.000000, 0.000000, 0.219673, 82.894908 
2080568720.379147, -0.892461, 0.448608, 0.000000, 0.000000, 0.225586, 89.357356 
2090573986.308583, -0.877341, 0.477454, 0.000000, 0.000000, 0.232023, 95.870667 
2100579252.238020, -0.861286, 0.505793, 0.000000, 0.000000, 0.239031, 102.438927 
2110584518.167457, -0.844313, 0.533594, 0.000000, 0.000000, 0.246659, 109.066349 
2120589784.096893, -0.826439, 0.560828, 0.000000, 0.000000, 0.254957, 115.757283 
2130595050.026330, -0.807684, 0.587465, 0.000000, 0.000000, 0.263977, 122.516231 
2140600315.955766, -0.788068, 0.613476, 0.000000, 0.000000, 0.273773, 129.347859 
2150605581.885203, -0.767610, 0.638833, 0.000000, 0.000000, 0.284400, 136.257011 
2160610847.814639, -0.746334, 0.663509, 0.000000, 0.000000, 0.295916, 143.248723 
2170616113.744076, -0.724262, 0.687477, 0.000000, 0.000000, 0.308380, 150.328239 
2180621379.673512, -0.701417, 0.710711, 0.000000, 0.000000, 0.321853, 157.501031 
2190626645.602949, -0.677824, 0.733186, 0.000000, 0.000000, 0.336402, 164.772815 
2200631911.532386, -0.653508, 0.754877, 0.000000, 0.000000, 0.352092, 172.149571 
2210637177.461822, -0.628496, 0.775762, 0.000000, 0.000000, 0.368996, 179.637566 
2220642443.391258, -0.602814, 0.795817, 0.000000, 0.000000, 0.387187, 187.243378 
2230647709.320695, -0.576490, 0.815021, 0.000000, 0.000000, 0.406745, 194.973918 
2240652975.250132, -0.549552, 0.833353, 0.000000, 0.000000, 0.427751, 202.836461 
2250658241.179568, -0.522030, 0.850794, 0.000000, 0.000000, 0.450293, 210.838676 
2260663507.109005, -0.493953, 0.867325, 0.000000, 0.000000, 0.474465, 218.988657 
2270668773.038442, -0.465351, 0.882927, 0.000000, 0.000000, 0.500364, 227.294957 
2280674038.967878, -0.436256, 0.897585, 0.000000, 0.000000, 0.528095, 235.766635 
2290679304.897314, -0.406699, 0.911283, 0.000000, 0.000000, 0.557771, 244.413290 
2300684570.826751, -0.376711, 0.924006, 0.000000, 0.000000, 0.589512, 253.245112 
2310689836.756187, -0.346326, 0.935740, 0.000000, 0.000000, 0.623446, 262.272935 
2320695102.685624, -0.315575, 0.946474, 0.000000, 0.000000, 0.659711, 271.508293 
2330700368.615061, -0.284492, 0.956196, 0.000000, 0.000000, 0.698457, 280.963482 
2340705634.544497, -0.253111, 0.964895, 0.000000, 0.000000, 0.739845, 290.651632 
2350710900.473934, -0.221465, 0.972563, 0.000000, 0.000000, 0.784049, 300.586781 
2360716166.403370, -0.189589, 0.979192, 0.000000, 0.000000, 0.831258, 310.783965 
2370721432.332807, -0.157516, 0.984776, 0.000000, 0.000000, 0.881677, 321.259312 
2380726698.262243, -0.125282, 0.989308, 0.000000, 0.000000, 0.935531, 332.030144 
2390731964.191680, -0.092920, 0.992784, 0.000000, 0.000000, 0.993065, 343.115105 
2400737230.121117, -0.060465, 0.995200, 0.000000, 0.000000, 1.054546, 354.534284 
2410742496.050553, -0.027953, 0.996556, 0.000000, 0.000000, 1.120268, 366.309372 
2420747761.979990, 0.004582, 0.996849, 0.000000, 0.000000, 1.190557, 378.463827 
2430753027.909426, 0.037106, 0.996080, 0.000000, 0.000000, 1.265767, 391.023063 
2440758293.838862, 0.069583, 0.994249, 0.000000, 0.000000, 1.346295, 404.014663 
2450763559.768299, 0.101979, 0.991361, 0.000000, 0.000000, 1.432578, 417.468626 
2460768825.697736, 0.134260, 0.987417, 0.000000, 0.000000, 1.525102, 431.417637 
2470774091.627172, 0.166390, 0.982424, 0.000000, 0.000000, 1.624410, 445.897383 
2480779357.556609, 0.198337, 0.976385, 0.000000, 0.000000, 1.731106, 460.946914 
2490784623.486045, 0.230067, 0.969310, 0.000000, -0.000000, 1.845870, 476.609052 
2500789889.415482, 0.261544, 0.961204, 0.000000, -0.000000, 1.969464, 492.930861 
2510795155.344918, 0.292738, 0.952078, 0.000000, -0.000000, 2.102748, 509.964198 
2520800421.274355, 0.323613, 0.941942, 0.000000, -0.000000, 2.246695, 527.766341 
2530805687.203792, 0.354139, 0.930806, 0.000000, -0.000000, 2.402410, 546.400725 
2540810953.133228, 0.384283, 0.918683, 0.000000, -0.000000, 2.571147, 565.937796 
2550816219.062665, 0.414012, 0.905587, 0.000000, -0.000000, 2.754345, 586.456017 
2560821484.992101, 0.443297, 0.891530, 0.000000, -0.000000, 2.953651, 608.043045 
2570826750.921537, 0.472105, 0.876530, 0.000000, -0.000000, 3.170963, 630.797128 
2580832016.850974, 0.500408, 0.860600, 0.000000, -0.000000, 3.408478, 654.828762 
2590837282.780411, 0.528175, 0.843760, 0.000000, -0.000000, 3.668748, 680.262666 
2600842548.709847, 0.555377, 0.826026, 0.000000, -0.000000, 3.954754, 707.240157 
2610847814.639284, 0.581985, 0.807418, 0.000000, -0.000000, 4.269992, 735.922010 
2620853080.568720, 0.607973, 0.787955, 0.000000, -0.000000, 4.618590, 766.491940 
2630858346.498157, 0.633312, 0.767658, 0.000000, -0.000000, 5.005447, 799.160851 
2640863612.427593, 0.657977, 0.746549, 0.000000, -0.000000, 5.436413, 834.172066 
2650868878.357030, 0.681941, 0.724650, 0.000000, -0.000000, 5.918522, 871.807818 
2660874144.286467, 0.705180, 0.701983, 0.000000, -0.000000, 6.460292, 912.397360 
2670879410.215903, 0.727668, 0.678574, 0.000000, -0.000000, 7.072114, 956.327192 
2680884676.145340, 0.749384, 0.654446, 0.000000, -0.000000, 7.766783, 1004.054084 
2690889942.074776, 0.770303, 0.629624, 0.000000, -0.000000, 8.560182, 1056.121809 
2700895208.004213, 0.790404, 0.604136, 0.000000, -0.000000, 9.472241, 1113.182915 
2710900473.933649, 0.809666, 0.578007, 0.000000, -0.000000, 10.528231, 1176.027363 
2720905739.863086, 0.828069, 0.551264, 0.000000, -0.000000, 11.760594, 1245.620722 
2730911005.792522, 0.845593, 0.523937, 0.000000, -0.000000, 13.211528, 1323.155852 
2740916271.721959, 0.862220, 0.496053, 0.000000, -0.000000, 14.936748, 1410.123973 
2750921537.651396, 0.877932, 0.467641, 0.000000, -0.000000, 17.011044, 1508.414188 
2760926803.580832, 0.892712, 0.438732, 0.000000, -0.000000, 19.536715, 1620.455672 
2770932069.510269, 0.906546, 0.409355, 0.000000, -0.000000, 22.656693, 1749.425525 
2780937335.439705, 0.919418, 0.379541, 0.000000, -0.000000, 26.575616, 1899.560606 
2790942601.369142, 0.931314, 0.349321, 0.000000, -0.000000, 31.594866, 2076.639544 
2800947867.298578, 0.942221, 0.318727, 0.000000, -0.000000, 38.173249, 2288.754073 
2810953133.228015, 0.952129, 0.287791, 0.000000, -0.000000, 47.037271, 2547.594765 
2820958399.157452, 0.961025, 0.256544, 0.000000, -0.000000, 59.393420, 2870.701262 
2830963665.086888, 0.968901, 0.225021, 0.000000, -0.000000, 77.366569, 3285.641200 
2840968931.016325, 0.975747, 0.193253, 0.000000, -0.000000, 104.988561, 3838.366304 
2850974196.945761, 0.981555, 0.161275, 0.000000, -0.000000, 150.695439, 4611.584737 
2860979462.875197, 0.986320, 0.129119, 0.000000, -0.000000, 234.679677, 5770.625813 
2870984728.804634, 0.990035, 0.096819, 0.000000, -0.000000, 415.877096, 7700.555725 
2880989994.734071, 0.992695, 0.064410, 0.000000, -0.000000, 933.065908, 11549.332683 
2890995260.663507, 0.994299, 0.031925, 0.000000, -0.000000, 3707.790672, 22871.261917 
2901000526.592944, 0.994842, -0.000601, 0.000000, -0.000000, 143738.632226, -16780.382848 
2911005792.522380, 0.994324, -0.033133, 0.000000, -0.000000, 3407.941522, -22091.790368 
2921011058.451817, 0.992744, -0.065639, 0.000000, -0.000000, 876.840006, -11340.313491 
2931016324.381253, 0.990104, -0.098082, 0.000000, -0.000000, 390.514002, -7604.515289 
2941021590.310690, 0.986406, -0.130429, 0.000000, -0.000000, 218.902500, -5714.690898 
2951026856.240127, 0.981652, -0.162646, 0.000000, -0.000000, 139.309235, -4574.312825 
2961032122.169563, 0.975846, -0.194697, 0.000000, -0.000000, 96.086506, -3811.259089 
2971037388.099000, 0.968995, -0.226549, 0.000000, -0.000000, 70.062950, -3264.672273 
2981042654.028436, 0.961105, -0.258167, 0.000000, -0.000000, 53.209374, -2853.720220 
2991047919.957872, 0.952182, -0.289519, 0.000000, -0.000000, 41.685305, -2533.349716 
3001053185.887309, 0.942237, -0.320569, 0.000000, -0.000000, 33.467159, -2276.467138 
3011058451.816746, 0.931277, -0.351286, 0.000000, -0.000000, 27.406971, -2065.802077 
3021063717.746182, 0.919315, -0.381635, 0.000000, -0.000000, 22.814403, -1889.826057 
3031068983.675619, 0.906363, -0.411583, 0.000000, -0.000000, 19.254222, -1740.549670 
3041074249.605055, 0.892432, -0.441099, 0.000000, -0.000000, 16.441082, -1612.261458 
3051079515.534492, 0.877538, -0.470151, 0.000000, -0.000000, 14.181642, -1500.770128 
3061084781.463928, 0.861695, -0.498706, 0.000000, -0.000000, 12.341167, -1402.930374 
3071090047.393365, 0.844920, -0.526734, 0.000000, -0.000000, 10.823455, -1316.335752 
3081095313.322802, 0.827230, -0.554203, 0.000000, -0.000000, 9.558344, -1239.113755 
3091100579.252238, 0.808642, -0.581085, 0.000000, -0.000000, 8.493703, -1169.785506 
3101105845.181675, 0.789177, -0.607349, 0.000000, -0.000000, 7.590148, -1107.167480 
3111111111.111111, 0.768854, -0.632966, 0.000000, -0.000000, 6.817485, -1050.301273 
3121116377.040547, 0.747696, -0.657908, 0.000000, -0.000000, 6.152251, -998.402492 
3131121642.969984, 0.725723, -0.682148, 0.000000, -0.000000, 5.575998, -950.822972 
3141126908.899421, 0.702958, -0.705659, 0.000000, -0.000000, 5.074060, -907.022423 
3151132174.828857, 0.679427, -0.728414, 0.000000, -0.000000, 4.634657, -866.546876 
3161137440.758294, 0.655154, -0.750388, 0.000000, -0.000000, 4.248248, -829.012095 
3171142706.687730, 0.630164, -0.771558, 0.000000, -0.000000, 3.907034, -794.090678 
3181147972.617167, 0.604484, -0.791898, 0.000000, -0.000000, 3.604591, -761.501914 
3191153238.546604, 0.578142, -0.811386, 0.000000, -0.000000, 3.335594, -731.003739 
3201158504.476040, 0.551165, -0.830001, 0.000000, -0.000000, 3.095595, -702.386299 
3211163770.405477, 0.523583, -0.847720, 0.000000, -0.000000, 2.880856, -675.466759 
3221169036.334913, 0.495425, -0.864525, 0.000000, -0.000000, 2.688219, -650.085079 
3231174302.264350, 0.466721, -0.880397, 0.000000, -0.000000, 2.515002, -626.100570 
3241179568.193786, 0.437503, -0.895316, 0.000000, -0.000000, 2.358913, -603.389041 
3251184834.123223, 0.407802, -0.909266, 0.000000, -0.000000, 2.217986, -581.840449 
3261190100.052660, 0.377650, -0.922232, 0.000000, -0.000000, 2.090527, -561.356928 
