# stacked metamaterial geometry 
# f [Hz], L [0.001 m]
# Unitcell size lx, ly, lz = 10, 10, 99.9308 at center position x = 0 y = 0 z = 0
# Definition of material properties: 
#name =copper,type =const,Kappa =56000000,
#name =FR4,Epsilon =4.4,Kappa =0.048957,type =const,
#name =copperSquares,type =const,Kappa =56000000,
#name =air,type =const,Epsilon =1,
## layer number 1:
# rect patch made of copper. lx, ly, lz = 10, 10, 0.5 at center position x = 0 y = 0 z = -0.25
# background material (if any) is air
# layer number 2:
# rect patch made of FR4. lx, ly, lz = 10, 10, 0.4 at center position x = 0 y = 0 z = -0.7
# background material (if any) is air
# Re/Im parts of the scattering parameters S11 (refl.) and S21 (transm.) and the real and imaginary part of the impedance as a function of frequency 
# first column is frequency, second and third columns are Re/Im of S11 and S21, respectively.
1000000000.000000, 0.989341, -0.096471, -0.000000, 0.000000, 475.826079, -7716.044910 
1010005265.929437, 0.985735, -0.128259, -0.000000, 0.000000, 268.641050, -5802.728148 
1020010531.858873, 0.981114, -0.159919, -0.000000, 0.000000, 172.025316, -4646.709801 
1030015797.788310, 0.975483, -0.191417, -0.000000, 0.000000, 119.298934, -3872.684926 
1040021063.717746, 0.968845, -0.222723, -0.000000, 0.000000, 87.402806, -3318.028871 
1050026329.647183, 0.961208, -0.253803, -0.000000, 0.000000, 66.649773, -2900.911980 
1060031595.576619, 0.952580, -0.284627, -0.000000, 0.000000, 52.393634, -2575.686903 
1070036861.506056, 0.942967, -0.315164, -0.000000, 0.000000, 42.180005, -2314.887217 
1080042127.435492, 0.932380, -0.345381, -0.000000, 0.000000, 34.613138, -2100.997817 
1090047393.364929, 0.920828, -0.375249, -0.000000, 0.000000, 28.851701, -1922.323384 
1100052659.294365, 0.908323, -0.404736, -0.000000, 0.000000, 24.364037, -1770.757016 
1110057925.223802, 0.894877, -0.433813, -0.000000, 0.000000, 20.800788, -1640.502208 
1120063191.153239, 0.880503, -0.462449, -0.000000, 0.000000, 17.924709, -1527.304636 
1130068457.082675, 0.865216, -0.490615, -0.000000, 0.000000, 15.570101, -1427.971313 
1140073723.012112, 0.849029, -0.518282, -0.000000, 0.000000, 13.618391, -1340.059070 
1150078988.941548, 0.831958, -0.545421, -0.000000, 0.000000, 11.982912, -1261.666667 
1160084254.870985, 0.814022, -0.572005, -0.000000, 0.000000, 10.599128, -1191.292427 
1170089520.800421, 0.795237, -0.598005, -0.000000, 0.000000, 9.418178, -1127.734509 
1180094786.729858, 0.775621, -0.623395, -0.000000, 0.000000, 8.402521, -1070.019625 
1190100052.659294, 0.755195, -0.648147, -0.000000, 0.000000, 7.522924, -1017.351170 
1200105318.588731, 0.733979, -0.672236, -0.000000, 0.000000, 6.756352, -969.070859 
1210110584.518167, 0.711993, -0.695637, -0.000000, 0.000000, 6.084450, -924.629952 
1220115850.447604, 0.689260, -0.718325, -0.000000, 0.000000, 5.492450, -883.567366 
1230121116.377041, 0.665802, -0.740275, 0.000000, 0.000000, 4.968361, -845.492838 
1240126382.306477, 0.641644, -0.761465, 0.000000, 0.000000, 4.502362, -810.073825 
1250131648.235914, 0.616808, -0.781872, 0.000000, 0.000000, 4.086349, -777.025203 
1260136914.165350, 0.591321, -0.801474, 0.000000, 0.000000, 3.713587, -746.101101 
1270142180.094787, 0.565208, -0.820250, 0.000000, 0.000000, 3.378439, -717.088365 
1280147446.024223, 0.538496, -0.838180, 0.000000, 0.000000, 3.076160, -689.801284 
1290152711.953660, 0.511211, -0.855245, 0.000000, 0.000000, 2.802733, -664.077304 
1300157977.883096, 0.483382, -0.871425, 0.000000, 0.000000, 2.554737, -639.773523 
1310163243.812533, 0.455037, -0.886704, 0.000000, 0.000000, 2.329246, -616.763803 
1320168509.741970, 0.426205, -0.901064, 0.000000, 0.000000, 2.123742, -594.936375 
1330173775.671406, 0.396916, -0.914490, 0.000000, 0.000000, 1.936053, -574.191842 
1340179041.600842, 0.367199, -0.926966, 0.000000, 0.000000, 1.764294, -554.441514 
1350184307.530279, 0.337085, -0.938479, 0.000000, 0.000000, 1.606824, -535.605992 
1360189573.459716, 0.306606, -0.949016, 0.000000, 0.000000, 1.462208, -517.613982 
1370194839.389152, 0.275793, -0.958564, 0.000000, 0.000000, 1.329189, -500.401278 
1380200105.318589, 0.244678, -0.967114, 0.000000, 0.000000, 1.206660, -483.909900 
1390205371.248025, 0.213293, -0.974655, 0.000000, 0.000000, 1.093642, -468.087351 
1400210637.177462, 0.181671, -0.981177, 0.000000, 0.000000, 0.989270, -452.885980 
1410215903.106898, 0.149846, -0.986674, 0.000000, 0.000000, 0.892776, -438.262430 
1420221169.036335, 0.117849, -0.991139, 0.000000, 0.000000, 0.803474, -424.177160 
1430226434.965771, 0.085716, -0.994566, 0.000000, 0.000000, 0.720753, -410.594028 
1440231700.895208, 0.053479, -0.996950, 0.000000, 0.000000, 0.644065, -397.479934 
1450236966.824645, 0.021173, -0.998288, 0.000000, 0.000000, 0.572919, -384.804496 
1460242232.754081, -0.011168, -0.998578, 0.000000, 0.000000, 0.506873, -372.539775 
1470247498.683518, -0.043511, -0.997818, 0.000000, 0.000000, 0.445528, -360.660029 
1480252764.612954, -0.075820, -0.996009, 0.000000, 0.000000, 0.388525, -349.141499 
1490258030.542391, -0.108063, -0.993152, 0.000000, 0.000000, 0.335537, -337.962211 
1500263296.471827, -0.140203, -0.989248, 0.000000, 0.000000, 0.286269, -327.101815 
1510268562.401264, -0.172208, -0.984301, 0.000000, 0.000000, 0.240453, -316.541427 
1520273828.330700, -0.204043, -0.978316, 0.000000, 0.000000, 0.197844, -306.263496 
1530279094.260137, -0.235675, -0.971298, 0.000000, 0.000000, 0.158218, -296.251688 
1540284360.189574, -0.267069, -0.963254, 0.000000, 0.000000, 0.121373, -286.490770 
1550289626.119010, -0.298192, -0.954191, 0.000000, 0.000000, 0.087122, -276.966524 
1560294892.048447, -0.329010, -0.944120, 0.000000, 0.000000, 0.055295, -267.665649 
1570300157.977883, -0.359492, -0.933049, 0.000000, 0.000000, 0.025734, -258.575691 
1580305423.907320, -0.389603, -0.920990, 0.000000, 0.000000, -0.001704, -249.684970 
1590310689.836756, -0.419312, -0.907955, 0.000000, 0.000000, -0.027152, -240.982516 
1600315955.766193, -0.448586, -0.893958, 0.000000, 0.000000, -0.050731, -232.458008 
1610321221.695629, -0.477395, -0.879013, 0.000000, 0.000000, -0.072554, -224.101729 
1620326487.625066, -0.505707, -0.863135, 0.000000, 0.000000, -0.092725, -215.904511 
1630331753.554502, -0.533491, -0.846341, 0.000000, -0.000000, -0.111341, -207.857694 
1640337019.483939, -0.560719, -0.828649, 0.000000, -0.000000, -0.128489, -199.953090 
1650342285.413375, -0.587360, -0.810077, 0.000000, -0.000000, -0.144252, -192.182940 
1660347551.342812, -0.613385, -0.790644, 0.000000, -0.000000, -0.158708, -184.539887 
1670352817.272249, -0.638768, -0.770372, 0.000000, -0.000000, -0.171925, -177.016942 
1680358083.201685, -0.663479, -0.749280, 0.000000, -0.000000, -0.183972, -169.607457 
1690363349.131122, -0.687493, -0.727392, 0.000000, -0.000000, -0.194908, -162.305099 
1700368615.060558, -0.710784, -0.704732, 0.000000, -0.000000, -0.204791, -155.103829 
1710373880.989995, -0.733327, -0.681322, 0.000000, -0.000000, -0.213673, -147.997876 
1720379146.919431, -0.755097, -0.657187, 0.000000, -0.000000, -0.221605, -140.981718 
1730384412.848868, -0.776070, -0.632354, 0.000000, -0.000000, -0.228632, -134.050067 
1740389678.778304, -0.796225, -0.606850, 0.000000, -0.000000, -0.234797, -127.197845 
1750394944.707741, -0.815539, -0.580700, 0.000000, -0.000000, -0.240141, -120.420174 
1760400210.637177, -0.833992, -0.553933, 0.000000, -0.000000, -0.244701, -113.712357 
1770405476.566614, -0.851564, -0.526577, 0.000000, -0.000000, -0.248511, -107.069866 
1780410742.496051, -0.868235, -0.498663, 0.000000, -0.000000, -0.251605, -100.488327 
1790416008.425487, -0.883989, -0.470219, 0.000000, -0.000000, -0.254012, -93.963511 
1800421274.354924, -0.898808, -0.441276, 0.000000, -0.000000, -0.255762, -87.491316 
1810426540.284360, -0.912676, -0.411866, 0.000000, -0.000000, -0.256881, -81.067764 
1820431806.213797, -0.925578, -0.382018, 0.000000, -0.000000, -0.257393, -74.688984 
1830437072.143233, -0.937501, -0.351767, 0.000000, -0.000000, -0.257323, -68.351207 
1840442338.072670, -0.948433, -0.321143, 0.000000, -0.000000, -0.256691, -62.050752 
1850447604.002106, -0.958360, -0.290180, 0.000000, -0.000000, -0.255518, -55.784023 
1860452869.931543, -0.967274, -0.258910, 0.000000, -0.000000, -0.253822, -49.547495 
1870458135.860980, -0.975164, -0.227368, 0.000000, -0.000000, -0.251621, -43.337707 
1880463401.790416, -0.982022, -0.195586, 0.000000, -0.000000, -0.248932, -37.151257 
1890468667.719852, -0.987841, -0.163600, 0.000000, -0.000000, -0.245768, -30.984791 
1900473933.649289, -0.992616, -0.131443, 0.000000, -0.000000, -0.242144, -24.834999 
1910479199.578726, -0.996340, -0.099149, 0.000000, -0.000000, -0.238074, -18.698604 
1920484465.508162, -0.999012, -0.066753, 0.000000, -0.000000, -0.233568, -12.572358 
1930489731.437599, -1.000627, -0.034290, 0.000000, -0.000000, -0.228637, -6.453033 
1940494997.367035, -1.001185, -0.001793, 0.000000, -0.000000, -0.223292, -0.337415 
1950500263.296472, -1.000684, 0.030701, 0.000000, -0.000000, -0.217542, 5.777701 
1960505529.225908, -0.999127, 0.063159, 0.000000, -0.000000, -0.211394, 11.895520 
1970510795.155345, -0.996516, 0.095547, 0.000000, -0.000000, -0.204855, 18.019254 
1980516061.084782, -0.992852, 0.127829, 0.000000, -0.000000, -0.197933, 24.152128 
1990521327.014218, -0.988141, 0.159971, 0.000000, -0.000000, -0.190633, 30.297384 
2000526592.943655, -0.982388, 0.191940, 0.000000, -0.000000, -0.182959, 36.458295 
2010531858.873091, -0.975599, 0.223701, 0.000000, -0.000000, -0.174916, 42.638162 
2020537124.802528, -0.967782, 0.255222, 0.000000, -0.000000, -0.166507, 48.840332 
2030542390.731964, -0.958946, 0.286467, 0.000000, -0.000000, -0.157734, 55.068196 
2040547656.661401, -0.949101, 0.317405, -0.000000, -0.000000, -0.148599, 61.325203 
2050552922.590837, -0.938257, 0.348004, -0.000000, -0.000000, -0.139103, 67.614865 
2060558188.520274, -0.926426, 0.378229, -0.000000, -0.000000, -0.129246, 73.940764 
2070563454.449710, -0.913621, 0.408051, -0.000000, -0.000000, -0.119028, 80.306564 
2080568720.379147, -0.899857, 0.437437, -0.000000, -0.000000, -0.108447, 86.716017 
2090573986.308583, -0.885149, 0.466356, -0.000000, -0.000000, -0.097500, 93.172974 
2100579252.238020, -0.869511, 0.494779, -0.000000, -0.000000, -0.086185, 99.681391 
2110584518.167457, -0.852962, 0.522675, -0.000000, -0.000000, -0.074498, 106.245346 
2120589784.096893, -0.835518, 0.550016, -0.000000, -0.000000, -0.062434, 112.869044 
2130595050.026330, -0.817200, 0.576772, -0.000000, -0.000000, -0.049988, 119.556830 
2140600315.955766, -0.798026, 0.602917, -0.000000, -0.000000, -0.037152, 126.313203 
2150605581.885203, -0.778018, 0.628422, -0.000000, -0.000000, -0.023919, 133.142827 
2160610847.814639, -0.757196, 0.653261, -0.000000, -0.000000, -0.010282, 140.050547 
2170616113.744076, -0.735584, 0.677408, -0.000000, -0.000000, 0.003771, 147.041400 
2180621379.673512, -0.713203, 0.700839, -0.000000, -0.000000, 0.018249, 154.120636 
2190626645.602949, -0.690078, 0.723529, -0.000000, -0.000000, 0.033166, 161.293734 
2200631911.532386, -0.666235, 0.745454, -0.000000, -0.000000, 0.048533, 168.566416 
2210637177.461822, -0.641697, 0.766593, -0.000000, -0.000000, 0.064365, 175.944672 
2220642443.391258, -0.616491, 0.786922, -0.000000, -0.000000, 0.080679, 183.434781 
2230647709.320695, -0.590644, 0.806422, -0.000000, -0.000000, 0.097492, 191.043333 
2240652975.250132, -0.564184, 0.825072, -0.000000, -0.000000, 0.114823, 198.777253 
2250658241.179568, -0.537137, 0.842853, -0.000000, -0.000000, 0.132692, 206.643832 
2260663507.109005, -0.509533, 0.859747, -0.000000, -0.000000, 0.151123, 214.650755 
2270668773.038442, -0.481402, 0.875737, -0.000000, -0.000000, 0.170140, 222.806134 
2280674038.967878, -0.452771, 0.890806, -0.000000, -0.000000, 0.189771, 231.118544 
2290679304.897314, -0.423673, 0.904939, -0.000000, -0.000000, 0.210044, 239.597062 
2300684570.826751, -0.394136, 0.918122, -0.000000, -0.000000, 0.230991, 248.251309 
2310689836.756187, -0.364193, 0.930341, -0.000000, -0.000000, 0.252647, 257.091498 
2320695102.685624, -0.333875, 0.941584, -0.000000, -0.000000, 0.275050, 266.128486 
2330700368.615061, -0.303213, 0.951840, -0.000000, -0.000000, 0.298240, 275.373830 
2340705634.544497, -0.272239, 0.961099, -0.000000, -0.000000, 0.322263, 284.839851 
2350710900.473934, -0.240987, 0.969350, -0.000000, -0.000000, 0.347168, 294.539704 
2360716166.403370, -0.209488, 0.976587, -0.000000, -0.000000, 0.373006, 304.487451 
2370721432.332807, -0.177775, 0.982801, -0.000000, -0.000000, 0.399837, 314.698153 
2380726698.262243, -0.145882, 0.987988, -0.000000, -0.000000, 0.427723, 325.187961 
2390731964.191680, -0.113842, 0.992140, -0.000000, -0.000000, 0.456735, 335.974221 
2400737230.121117, -0.081688, 0.995256, -0.000000, -0.000000, 0.486948, 347.075596 
2410742496.050553, -0.049453, 0.997331, -0.000000, -0.000000, 0.518445, 358.512198 
2420747761.979990, -0.017171, 0.998365, -0.000000, -0.000000, 0.551319, 370.305733 
2430753027.909426, 0.015124, 0.998356, -0.000000, -0.000000, 0.585669, 382.479672 
2440758293.838862, 0.047399, 0.997304, -0.000000, -0.000000, 0.621607, 395.059440 
2450763559.768299, 0.079620, 0.995211, -0.000000, 0.000000, 0.659256, 408.072624 
2460768825.697736, 0.111754, 0.992080, -0.000000, 0.000000, 0.698751, 421.549220 
2470774091.627172, 0.143768, 0.987913, -0.000000, 0.000000, 0.740243, 435.521901 
2480779357.556609, 0.175628, 0.982716, -0.000000, 0.000000, 0.783899, 450.026335 
2490784623.486045, 0.207302, 0.976494, -0.000000, 0.000000, 0.829905, 465.101538 
2500789889.415482, 0.238756, 0.969254, -0.000000, 0.000000, 0.878470, 480.790281 
2510795155.344918, 0.269959, 0.961003, -0.000000, 0.000000, 0.929825, 497.139564 
2520800421.274355, 0.300877, 0.951751, -0.000000, 0.000000, 0.984233, 514.201151 
2530805687.203792, 0.331479, 0.941506, -0.000000, 0.000000, 1.041986, 532.032202 
2540810953.133228, 0.361733, 0.930280, -0.000000, 0.000000, 1.103417, 550.695999 
2550816219.062665, 0.391608, 0.918085, -0.000000, 0.000000, 1.168902, 570.262793 
2560821484.992101, 0.421073, 0.904932, -0.000000, 0.000000, 1.238868, 590.810799 
2570826750.921537, 0.450098, 0.890837, -0.000000, 0.000000, 1.313802, 612.427365 
2580832016.850974, 0.478651, 0.875813, -0.000000, 0.000000, 1.394263, 635.210348 
2590837282.780411, 0.506705, 0.859876, -0.000000, 0.000000, 1.480892, 659.269758 
2600842548.709847, 0.534229, 0.843043, -0.000000, 0.000000, 1.574430, 684.729706 
2610847814.639284, 0.561196, 0.825332, -0.000000, 0.000000, 1.675738, 711.730749 
2620853080.568720, 0.587577, 0.806760, -0.000000, 0.000000, 1.785816, 740.432714 
2630858346.498157, 0.613345, 0.787347, -0.000000, 0.000000, 1.905841, 771.018130 
2640863612.427593, 0.638474, 0.767113, -0.000000, 0.000000, 2.037196, 803.696409 
2650868878.357030, 0.662937, 0.746079, -0.000000, 0.000000, 2.181524, 838.709001 
2660874144.286467, 0.686709, 0.724266, -0.000000, 0.000000, 2.340786, 876.335770 
2670879410.215903, 0.709765, 0.701698, -0.000000, 0.000000, 2.517336, 916.902963 
2680884676.145340, 0.732082, 0.678398, -0.000000, 0.000000, 2.714030, 960.793242 
2690889942.074776, 0.753636, 0.654389, -0.000000, 0.000000, 2.934351, 1008.458442 
2700895208.004213, 0.774404, 0.629697, -0.000000, 0.000000, 3.182596, 1060.435959 
2710900473.933649, 0.794366, 0.604347, -0.000000, 0.000000, 3.464107, 1117.370015 
2720905739.863086, 0.813500, 0.578365, -0.000000, 0.000000, 3.785608, 1180.039610 
2730911005.792522, 0.831787, 0.551779, -0.000000, 0.000000, 4.155655, 1249.395726 
2740916271.721959, 0.849207, 0.524615, -0.000000, 0.000000, 4.585280, 1326.611582 
2750921537.651396, 0.865742, 0.496902, -0.000000, 0.000000, 5.088923, 1413.151598 
2760926803.580832, 0.881375, 0.468668, -0.000000, 0.000000, 5.685784, 1510.867743 
2770932069.510269, 0.896090, 0.439944, -0.000000, 0.000000, 6.401877, 1622.136840 
2780937335.439705, 0.909871, 0.410757, -0.000000, 0.000000, 7.273183, 1750.060708 
2790942601.369142, 0.922703, 0.381139, -0.000000, 0.000000, 8.350675, 1898.765438 
2800947867.298578, 0.934573, 0.351121, -0.000000, 0.000000, 9.708589, 2073.862261 
2810953133.228015, 0.945469, 0.320733, -0.000000, 0.000000, 11.458599, 2283.181855 
2820958399.157452, 0.955378, 0.290007, -0.000000, 0.000000, 13.775270, 2537.992134 
2830963665.086888, 0.964292, 0.258975, -0.000000, 0.000000, 16.944424, 2855.116701 
2840968931.016325, 0.972199, 0.227668, -0.000000, 0.000000, 21.461554, 3260.840282 
2850974196.945761, 0.979091, 0.196120, 0.000000, 0.000000, 28.249904, 3798.647451 
2860979462.875197, 0.984962, 0.164364, 0.000000, 0.000000, 39.199824, 4546.042361 
2870984728.804634, 0.989804, 0.132432, 0.000000, 0.000000, 58.714548, 5655.902990 
2880989994.734071, 0.993613, 0.100357, 0.000000, 0.000000, 99.177916, 7477.525575 
2890995260.663507, 0.996383, 0.068173, 0.000000, 0.000000, 207.937328, 11021.200548 
2901000526.592944, 0.998113, 0.035913, 0.000000, 0.000000, 722.556004, 20922.357942 
2911005792.522380, 0.998799, 0.003611, 0.000000, 0.000000, 62080.444738, 187878.229034 
2921011058.451817, 0.998442, -0.028699, 0.000000, 0.000000, 1044.648764, -26176.761484 
2931016324.381253, 0.997040, -0.060984, 0.000000, 0.000000, 221.607622, -12326.027413 
2941021590.310690, 0.994595, -0.093210, 0.000000, 0.000000, 90.467537, -8056.388682 
2951026856.240127, 0.991109, -0.125343, 0.000000, 0.000000, 47.533820, -5981.080837 
2961032122.169563, 0.986586, -0.157350, 0.000000, 0.000000, 28.546803, -4753.870979 
2971037388.099000, 0.981029, -0.189198, 0.000000, 0.000000, 18.608364, -3942.749800 
2981042654.028436, 0.974445, -0.220853, 0.000000, 0.000000, 12.810490, -3366.524359 
2991047919.957872, 0.966840, -0.252281, 0.000000, 0.000000, 9.162125, -2935.868706 
3001053185.887309, 0.958221, -0.283450, 0.000000, 0.000000, 6.734525, -2601.652268 
3011058451.816746, 0.948598, -0.314328, 0.000000, 0.000000, 5.048530, -2334.617169 
3021063717.746182, 0.937980, -0.344882, 0.000000, 0.000000, 3.837301, -2116.253225 
3031068983.675619, 0.926377, -0.375079, 0.000000, 0.000000, 2.943040, -1934.277933 
3041074249.605055, 0.913802, -0.404889, 0.000000, 0.000000, 2.267798, -1780.220572 
3051079515.534492, 0.900267, -0.434279, 0.000000, 0.000000, 1.748295, -1648.049954 
3061084781.463928, 0.885786, -0.463219, 0.000000, 0.000000, 1.342253, -1533.355174 
3071090047.393365, 0.870375, -0.491678, 0.000000, 0.000000, 1.020606, -1432.835726 
3081095313.322802, 0.854048, -0.519627, 0.000000, 0.000000, 0.762877, -1343.972762 
3091100579.252238, 0.836823, -0.547035, 0.000000, 0.000000, 0.554323, -1264.810611 
3101105845.181675, 0.818718, -0.573875, 0.000000, 0.000000, 0.384130, -1193.807702 
3111111111.111111, 0.799750, -0.600116, 0.000000, 0.000000, 0.244233, -1129.732460 
3121116377.040547, 0.779941, -0.625733, 0.000000, 0.000000, 0.128524, -1071.589098 
3131121642.969984, 0.759310, -0.650698, 0.000000, 0.000000, 0.032320, -1018.563761 
3141126908.899421, 0.737878, -0.674983, 0.000000, 0.000000, -0.048018, -969.984779 
3151132174.828857, 0.715669, -0.698564, 0.000000, 0.000000, -0.115344, -925.292906 
3161137440.758294, 0.692704, -0.721416, 0.000000, 0.000000, -0.171923, -884.018737 
3171142706.687730, 0.669009, -0.743514, 0.000000, 0.000000, -0.219566, -845.765352 
3181147972.617167, 0.644607, -0.764835, 0.000000, 0.000000, -0.259733, -810.194838 
3191153238.546604, 0.619524, -0.785355, 0.000000, 0.000000, -0.293612, -777.017711 
3201158504.476040, 0.593787, -0.805054, 0.000000, 0.000000, -0.322174, -745.984531 
3211163770.405477, 0.567421, -0.823911, 0.000000, 0.000000, -0.346221, -716.879202 
3221169036.334913, 0.540456, -0.841904, 0.000000, 0.000000, -0.366417, -689.513575 
3231174302.264350, 0.512918, -0.859015, 0.000000, 0.000000, -0.383314, -663.723067 
3241179568.193786, 0.484837, -0.875226, 0.000000, -0.000000, -0.397376, -639.363072 
3251184834.123223, 0.456242, -0.890519, 0.000000, -0.000000, -0.408994, -616.306020 
3261190100.052660, 0.427164, -0.904879, 0.000000, -0.000000, -0.418498, -594.438928 
